Longitude;Latitude
5.718975768251461 ; 45.17089829839775
5.709504921306008 ; 45.168513060006546
5.72558067538106 ; 45.16789668191584
5.734933802995935 ; 45.171574629931406
5.741071187344329 ; 45.18909342910335
5.7362236824995625 ; 45.1668093541071
5.703585263221331 ; 45.16484456568734
5.730363544968902 ; 45.161621901893994
5.730987448571373 ; 45.16303417761451
5.732545309843978 ; 45.19587283014911
5.7036192145535045 ; 45.165374432614094
5.739595947735025 ; 45.1606196272497
5.734967021966326 ; 45.177192635111204
5.713254203562235 ; 45.187176738452
5.72192550429582 ; 45.19032123926209
5.738982738187791 ; 45.191741172331824
5.718365445837809 ; 45.17572594101661
5.732794413078489 ; 45.169702658685175
5.742854283515494 ; 45.175893427913145
5.70771486462779 ; 45.175612246898574
5.719981529991028 ; 45.19414845368369
5.725589356809945 ; 45.167762837345485
5.705279892080174 ; 45.163743419082465
5.741605026181312 ; 45.19475993812171
5.718323878139897 ; 45.16216541881243
5.737653459510068 ; 45.160837753467064
5.725687742317961 ; 45.16311497697327
5.731904283466567 ; 45.167043225231275
5.735127586516562 ; 45.176802740262694
5.735120780249451 ; 45.19528599283925
5.738374715815024 ; 45.170746994410685
5.722416209274853 ; 45.162676923005066
5.733986341514124 ; 45.19176862470193
5.728780401525809 ; 45.16223772122413
5.7352106229926  ;  45.17031655346193
5.708008651250703 ; 45.165083111342625
5.725603061282124 ; 45.16744542001613
5.73306958879649 ; 45.167759005178375
5.7198809983625845 ; 45.189951574077995
5.741714565643502 ; 45.18970068957963
5.7162660258144555 ; 45.19593383924606
5.745145499841125 ; 45.17807788809841
5.7264391843394815 ; 45.192077857430604
5.724681466527711 ; 45.166500478675204
5.71828158257385 ; 45.16083227181824
5.737281162516444 ; 45.16897955874808
5.741570647586557 ; 45.175799548758306
5.72355272854023 ; 45.17357177852181
5.731839810542427 ; 45.16316797530624
5.742608724978595 ; 45.18818070016145
5.727866143700219 ; 45.16124537533431
5.726946412646159 ; 45.16529722953365
5.731200025083948 ; 45.162176431878336
5.728447005558936 ; 45.18376143118692
5.725670817866108 ; 45.17258469144122
5.716726222955309 ; 45.19558603066768
5.705888951977247 ; 45.161258719812665
5.742041525416764 ; 45.17215247970452
5.715815716001053 ; 45.18026287232499
5.73182108442876 ; 45.17142152944739
5.731057427535896 ; 45.18600885480702
5.72154686179589 ; 45.177765312899226
5.729701953798442 ; 45.18939676712559
5.742631230812952 ; 45.188547295102595
5.703625627395024 ; 45.18089354322175
5.726206956259761 ; 45.17022022189526
5.704210263398119 ; 45.1816650235094
5.731774042799087 ; 45.17428485574158
5.7407173168219074 ; 45.17370767104996
5.736059198453475 ; 45.17258658124949
5.712726499531447 ; 45.1875752746387
5.732510766434717 ; 45.152371088055936
5.742833822292476 ; 45.17650231039428
5.716256363482487 ; 45.195907816176394
5.730169419270999 ; 45.18200284526207
5.743204341676459 ; 45.175837326402664
5.725543839324696 ; 45.162162445580776
5.743532493979028 ; 45.179446901647566
5.73794227475171 ; 45.19092132636686
5.698256145334296 ; 45.20684056234755
5.736820920766393 ; 45.16353038346771
5.7433780435773825 ; 45.17335396421345
5.6982786736124025 ; 45.20431530185217
5.727202926972932 ; 45.184363233131535
5.72540866088523 ; 45.166955897266
5.738163670460787 ; 45.17542542371226
5.716508841498362 ; 45.19592624851535
5.720782766350238 ; 45.180311468895674
5.731712244680225 ; 45.17578258848905
5.74437309711302 ; 45.18273686678612
5.736039997375671 ; 45.165464027444294
5.720542927216736 ; 45.194849422421825
5.70473487794799 ; 45.20221467257103
5.711341635549138 ; 45.16660181798982
5.713150697877424 ; 45.18860327104204
5.712807256228379 ; 45.18503323480161
5.726924562689363 ; 45.18495646671841
5.7103326263014695 ; 45.1617593595256
5.747738477923218 ; 45.17289514824283
5.725514331766586 ; 45.191740643022456
5.738281161316255 ; 45.189185890825016
5.739471306073218 ; 45.190846054792104
5.747030556630059 ; 45.175248659729256
5.727778153644628 ; 45.16473042395991
5.725490745401696 ; 45.16761620597944
5.736327900979291 ; 45.194309519692936
5.725571756396018 ; 45.16561426458469
5.726271177882545 ; 45.192870004026666
5.746248545966083 ; 45.18782258696481
5.731559709219256 ; 45.18832235792657
5.707143122776432 ; 45.16652365596086
5.7135460696733 ; 45.20024513012241
5.740926838069485 ; 45.19321766420402
5.732774239186055 ; 45.181913886810726
5.724978375127938 ; 45.17004570160191
5.730961081882552 ; 45.182019027481104
5.716107149113141 ; 45.19655124219609
5.717821587335763 ; 45.17655067421544
5.717302159380121 ; 45.169531515555576
5.732362003249937 ; 45.185066699968814
5.720082053337242 ; 45.19395133820743
5.739788321706152 ; 45.19210154912667
5.738257252118372 ; 45.17348923777096
5.749961555049436 ; 45.17617542141466
5.736121825342272 ; 45.19687532667915
5.711108346050791 ; 45.19511159749104
5.710406438929208 ; 45.19677586244061
5.746313855116094 ; 45.18835723236642
5.704719872363283 ; 45.16357605221302
5.7386705794737525 ; 45.16555456295953
5.742341823409141 ; 45.17354029401523
5.731559176922665 ; 45.17996193409343
5.736341680403338 ; 45.170247726982176
5.740001666786878 ; 45.199134068650395
5.733645390006296 ; 45.19621435087281
5.720919842486785 ; 45.17732788380322
5.703031989084969 ; 45.180843491519184
5.720715501147574 ; 45.175992056647246
5.743296285846357 ; 45.174324118296205
5.720485828049395 ; 45.16117978915566
5.709492888484047 ; 45.181754058718624
5.7051058462506585 ; 45.175594072832496
5.717794058495682 ; 45.163386250277355
5.736220158889568 ; 45.187815791160745
5.7367367351010525 ; 45.18889513876132
5.73572924197407 ; 45.19499016640667
5.70608183168762 ; 45.16546329716614
5.744808637645336 ; 45.1704260136995
5.728697309591007 ; 45.16332538899434
5.732146134435368 ; 45.16789685691524
5.742561049495543 ; 45.17664344624941
5.727365031363544 ; 45.1829589083738
5.739751456790652 ; 45.19101503587699
5.732903628516284 ; 45.1959632235127
5.735624707877419 ; 45.16883408310758
5.739771696488921 ; 45.16110326556888
5.730823546656998 ; 45.161508655998354
5.73921118980589 ; 45.17163804974436
5.740078279497666 ; 45.189268770162414
5.740362424722407 ; 45.173676926295016
5.742827799071023 ; 45.177180290953345
5.736870033360915 ; 45.171743910659266
5.710049778037464 ; 45.19107765101384
5.700397538937876 ; 45.20472685696801
5.713690383028479 ; 45.19090008507649
5.725661222456533 ; 45.166113814202745
5.73388712643868 ; 45.17073709194821
5.738024103561966 ; 45.17140809718936
5.74133119523132 ; 45.18887298659369
5.712620061682268 ; 45.17317037404951
5.731682355049649 ; 45.16191931366768
5.729830329159066 ; 45.1763522013716
5.707327272562986 ; 45.16603474707233
5.732278162965513 ; 45.17097532879751
5.715923948880123 ; 45.17768219140532
5.73228541596364 ; 45.17081615750051
5.711404653502108 ; 45.1657226216968
5.728706523853896 ; 45.17531919994659
5.725516450269599 ; 45.16711013765644
5.728433660166191 ; 45.16686902132957
5.7210539532377895 ; 45.17838851267218
5.724170511558967 ; 45.16400957086188
5.704333469262956 ; 45.17039707854384
5.7450809217156555 ; 45.19383675566778
5.73656149785267 ; 45.17715534950768
5.741029314467118 ; 45.175183531210564
5.710542133281374 ; 45.19333088709338
5.733567245445452 ; 45.20038900361318
5.736474890732105 ; 45.1668080464616
5.708517111158803 ; 45.17325752953135
5.72567127438929 ; 45.16652075064062
5.7423516206073355 ; 45.18946347639384
5.720180962073587 ; 45.193674506639915
5.7295824200659675 ; 45.17673444396822
5.742286277550787 ; 45.17567271464893
5.732087804989795 ; 45.16310310353421
5.74020178940951 ; 45.16898369070936
5.717526058816023 ; 45.19434811547714
5.737718997372602 ; 45.1568564449607
5.705334938273055 ; 45.175572996297014
5.715961771734254 ; 45.18859917781982
5.710247715091482 ; 45.17522092210026
5.717282060403077 ; 45.19490280629567
5.725597435164438 ; 45.166860680118084
5.740386599924412 ; 45.19249990576409
5.713324507313654 ; 45.16643863264379
5.733615122545796 ; 45.19653364477747
5.7282879000091596 ; 45.1838182079848
5.739750069101332 ; 45.193127357587855
5.704026035838522 ; 45.179884561600126
5.743380672403562 ; 45.18625972680489
5.736186923665568 ; 45.18853682631271
5.724503006143251 ; 45.16094724748881
5.737144346441362 ; 45.17039811536666
5.709876326572899 ; 45.17490210410412
5.7058324039665465 ; 45.191345634420856
5.71807547795229 ; 45.177316158611134
5.725439820046648 ; 45.18148914489259
5.721873087659469 ; 45.17757101065892
5.7308271351995685 ; 45.16790404434165
5.705994489972552 ; 45.177028024772866
5.717222084473586 ; 45.197700322448135
5.703539680263443 ; 45.16415096256771
5.745371353973813 ; 45.1950214287045
5.736327011914759 ; 45.17169177190768
5.734510356479785 ; 45.16979698944083
5.727820930662071 ; 45.15957577462386
5.70704591507597 ; 45.16713764649282
5.724465163902833 ; 45.17353834833078
5.711613613234642 ; 45.17427992991345
5.742782420385878 ; 45.17662062173725
5.735988406326239 ; 45.17321068961202
5.728134316418569 ; 45.16802778254571
5.735289098934244 ; 45.16809868823096
5.740992552857699 ; 45.17943390687463
5.702980608793482 ; 45.171415185514846
5.732352696319853 ; 45.169663280909724
5.725778083598978 ; 45.18141068366298
5.728618774360127 ; 45.1652831585509
5.713659565720532 ; 45.20027164412382
5.733414569894266 ; 45.154244511010596
5.725908541510566 ; 45.16190540510556
5.7137904616208335 ; 45.173119730400956
5.726938777497828 ; 45.191727966262924
5.740522792135572 ; 45.18910784272615
5.727871501354366 ; 45.159806175324256
5.713710443642055 ; 45.19853332950156
5.716416024034081 ; 45.187933927331585
5.731313774441534 ; 45.18632369759216
5.738730009417611 ; 45.1734059760331
5.743177778573531 ; 45.17605364746998
5.728653628931344 ; 45.16499433619001
5.717634333354526 ; 45.16354642971087
5.727363773855627 ; 45.17050906932728
5.709667912481351 ; 45.1605412860006
5.72462810385815 ; 45.183698115302946
5.704106405915634 ; 45.168707715986926
5.743128382583805 ; 45.17377265565919
5.711414132259493 ; 45.1660234057329
5.736884053615795 ; 45.187459508753804
5.7338319956133255 ; 45.170916622529454
5.727691910966502 ; 45.16013997887448
5.738012769143524 ; 45.162170165723246
5.742838240169332 ; 45.17659020810873
5.719540922825214 ; 45.16973075898647
5.733671070920117 ; 45.16350316970747
5.720745822378569 ; 45.17040781718579
5.745442895297742 ; 45.1943650021006
5.74336555836389 ; 45.18893432455606
5.705083753451006 ; 45.16362081590174
5.742944403126289 ; 45.17428065510248
5.719948816769676 ; 45.189389612458015
5.734758229335902 ; 45.168921985155656
5.721015238683421 ; 45.18051952443243
5.737089722597642 ; 45.190771678689046
5.732402449683882 ; 45.16970089759453
5.7248957358899855 ; 45.181361239665655
5.714087155031444 ; 45.172905581395355
5.7366275164358065 ; 45.19375826912061
5.704889095464883 ; 45.16608761592789
5.718531601464906 ; 45.1607452173987
5.735247109117871 ; 45.187810396514784
5.717063820323479 ; 45.16138177160745
5.714044889665628 ; 45.172478792010345
5.738731978101467 ; 45.16694495060187
5.720857639111383 ; 45.18936480120984
5.742314153946202 ; 45.16944570871389
5.704148061928008 ; 45.17061742081568
5.714556764247312 ; 45.18582496920865
5.710954577013668 ; 45.16573723504142
5.708476896908907 ; 45.185814977312326
5.714210518858 ; 45.16884891656984
5.728462831915368 ; 45.166179552874986
5.710247056766632 ; 45.191096972636934
5.72576604676154 ; 45.17514392640026
5.720041109040192 ; 45.17910673111288
5.7057816688092435 ; 45.17669019467507
5.713730664237949 ; 45.171573688448305
5.717384991658166 ; 45.19826803876448
5.723896678107336 ; 45.17364415704488
5.736153926797683 ; 45.17071315473826
5.731566788098585 ; 45.1797769804557
5.7265062672130345 ; 45.19027580826984
5.718807534660141 ; 45.17658577586487
5.736256890924061 ; 45.19697665153566
5.705910372735637 ; 45.176098258656324
5.751334374143034 ; 45.17638749844495
5.75106211423642 ; 45.17628255704108
5.706489292964929 ; 45.17296411807775
5.725524198944477 ; 45.16666849236809
5.726196273323643 ; 45.17003214509279
5.711705290914801 ; 45.16911982154179
5.741939749628238 ; 45.189122717047546
5.730467557567358 ; 45.159502449754996
5.736686658631734 ; 45.19351595657522
5.736527570869557 ; 45.16996962651974
5.727125866718973 ; 45.18635192127987
5.734358543831794 ; 45.15260727228678
5.706455097083474 ; 45.17532749195443
5.708394721066724 ; 45.19929491669079
5.714844077573235 ; 45.17008987665848
5.710313690633307 ; 45.193872017500375
5.722151901716333 ; 45.16558220087848
5.715285189684409 ; 45.18838424219328
5.73548291471095 ; 45.180133864706
5.734119093673866 ; 45.18608986794171
5.713586391831108 ; 45.19112725515089
5.731098008262191 ; 45.166485170429624
5.711946178643633 ; 45.179746867322265
5.725350468044139 ; 45.168105544711665
5.73286289639915 ; 45.16582196385639
5.713976015946761 ; 45.196361757336
5.740435043518941 ; 45.1645110660737
5.731599322924961 ; 45.17895250149881
5.717184861253918 ; 45.17737055088917
5.743925303396098 ; 45.17097290195707
5.7412388823654315 ; 45.16736866451327
5.729212461788072 ; 45.15955501052009
5.704944033196824 ; 45.16894047275959
5.737278974675279 ; 45.1943961823669
5.704824923374267 ; 45.17181598724484
5.724057015825312 ; 45.16648951321568
5.741124000162686 ; 45.19324619520463
5.723919179434303 ; 45.161826383208606
5.744974954458466 ; 45.170122536339086
5.706510430365678 ; 45.16302989153845
5.728990506776668 ; 45.16178011791303
5.722231014079625 ; 45.16259102118095
5.720041034235938 ; 45.17636756167717
5.728667982551278 ; 45.184321682027814
5.707974794291426 ; 45.160978246526156
5.7097969936492685 ; 45.17269150682333
5.736325530337466 ; 45.194880097613996
5.729115984681646 ; 45.18013548684902
5.711189074032363 ; 45.16673693972812
5.728571768132572 ; 45.184357949426854
5.723433931773697 ; 45.1733651386718
5.738413878465065 ; 45.189242922448834
5.735218729088006 ; 45.16556077629805
5.706735553035983 ; 45.16112527888258
5.7421764240283215 ; 45.17971904834716
5.741040208752322 ; 45.19274353191881
5.737124509893718 ; 45.16088732041769
5.732292098681559 ; 45.17065594022491
5.70725308487999 ; 45.17293693053257
5.7054498266528935 ; 45.19026289237754
5.743672574115853 ; 45.176057696401095
5.740533613319124 ; 45.19541591207135
5.725122535306772 ; 45.16720063532174
5.7436526760033 ; 45.184307024109216
5.7323789218367 ; 45.18871193693954
5.742305899267419 ; 45.16829070342924
5.716757008013411 ; 45.195716969908105
5.714535145179202 ; 45.19310854327352
5.730126504141306 ; 45.16843315883855
5.738943649341486 ; 45.166759366967916
5.732850372627993 ; 45.165785077151426
5.729154595167218 ; 45.182743344465756
5.742398053606865 ; 45.18916542143685
5.742500467940603 ; 45.18010388193711
5.726482027324685 ; 45.16007425445732
5.740217978434756 ; 45.189873270229405
5.730785054111758 ; 45.162872496012824
5.721143423823186 ; 45.17726015503591
5.7170037513925305 ; 45.19803674122731
5.70741291430198 ; 45.192246808149825
5.721111676982372 ; 45.160036825242784
5.725417792893109 ; 45.166899772152036
5.7003903176153825 ; 45.2049954291395
5.704633621350674 ; 45.16417765822644
5.706792230817796 ; 45.16308332892116
5.721756264400494 ; 45.16277264314255
5.738148484591006 ; 45.17535340028732
5.73718299148123 ; 45.17269171115821
5.735147514064884 ; 45.187766559294566
5.747885170496654 ; 45.18143842379499
5.745960961818107 ; 45.17854027979514
5.73657964215277 ; 45.172974628096874
5.738059249896586 ; 45.19179895778261
5.740995046910986 ; 45.1931273261217
5.711741382142485 ; 45.20048723957035
5.751644533511497 ; 45.176461509336505
5.706088840941629 ; 45.200751704151834
5.709891703611513 ; 45.19251030144295
5.711813006331415 ; 45.199023048077734
5.740346876732901 ; 45.18919115601477
5.722312534610257 ; 45.17717506640325
5.710292939310802 ; 45.17534442103113
5.7282567153906125 ; 45.162721468955915
5.72690220815467 ; 45.184262275251115
5.7038122158666775 ; 45.17090255178075
5.732803857598273 ; 45.16751715394727
5.732824585414344 ; 45.1717511158853
5.744799089115451 ; 45.188357443341026
5.7208491374408545 ; 45.192091839926725
5.728615983773847 ; 45.17274944642905
5.717283296709075 ; 45.17735301912368
5.717434209171671 ; 45.17439109920969
5.735242826056555 ; 45.18708812312009
5.719401277669472 ; 45.17611141684228
5.710151761471114 ; 45.19404231249142
5.730988681014582 ; 45.177466032712836
5.707536398027806 ; 45.158950636878906
5.714496383109606 ; 45.17512257710538
5.729695191273362 ; 45.18445707051714
5.717611049049249 ; 45.196203110112215
5.716778093248493 ; 45.19159827436259
5.713396788789594 ; 45.2005163799532
5.70914674897596 ; 45.190970760044166
5.7414876876980285 ; 45.189514296658594
5.72994394698936 ; 45.1626134876681
5.718748512924498 ; 45.17109086070845
5.736036130473119 ; 45.187450740661504
5.711136889600421 ; 45.16493543534775
5.704756638266145 ; 45.16435510727854
5.712195717860376 ; 45.179929050172014
5.719792922676774 ; 45.177689195127755
5.7071758757534115 ; 45.18060121848928
5.728358714509586 ; 45.1635132045655
5.726124100540946 ; 45.186589353605
5.7359991168514135 ; 45.19465924509931
5.718821212004277 ; 45.162895597021944
5.733823383750555 ; 45.158968824851016
5.746133660398644 ; 45.195403093296115
5.7384020876660395 ; 45.190870196923775
5.7302934705611746 ; 45.19448201709773
5.713638392825504 ; 45.17130418749398
5.738285227258924 ; 45.166133575928164
5.724918631970695 ; 45.16995261173553
5.735284203369387 ; 45.19540629296619
5.714195352773172 ; 45.17295205450898
5.742295057958927 ; 45.17254924088611
5.732123362783554 ; 45.16558561470491
5.705131390575753 ; 45.201608996534944
5.722076318294312 ; 45.18227820533931
5.712584589220829 ; 45.16845498320087
5.741648788308193 ; 45.188759583768515
5.725490113322911 ; 45.16775909143078
5.732769195479075 ; 45.16970253816176
5.736761179192038 ; 45.187559698721756
5.704004556245852 ; 45.17234078353108
5.749770455534877 ; 45.17623509358138
5.745787975307337 ; 45.19530430131464
5.736799660569817 ; 45.1940508364033
5.726727942786935 ; 45.16569010538912
5.740786148298447 ; 45.19551142012427
5.725985062535803 ; 45.19253860720712
5.728529576943134 ; 45.162455243771554
5.723576949751159 ; 45.16443200355386
5.737657635642663 ; 45.17016573478172
5.725717217320158 ; 45.165411147587
5.737150580888923 ; 45.17282557523985
5.728396405567489 ; 45.16775102186492
5.725650486596634 ; 45.16053631069138
5.734753766271918 ; 45.17130285934395
5.708165643892864 ; 45.165368299455935
5.735920751651898 ; 45.194535156251405
5.7118774234796525 ; 45.19329930508437
5.710417453486724 ; 45.162010528775255
5.737061300042705 ; 45.17037840781853
5.706600775246869 ; 45.18326406857308
5.744814244904633 ; 45.173383355769644
5.708977538112017 ; 45.17211070565421
5.7374107237139365 ; 45.17252782410504
5.711786389836352 ; 45.19945459225074
5.70545147876334 ; 45.165246573880694
5.710348860520746 ; 45.17535153451063
5.724330226836726 ; 45.17111843187717
5.725374369518859 ; 45.16785821715421
5.729634366053859 ; 45.18400060054946
5.7447402297164425 ; 45.18785282812326
5.744220334968152 ; 45.16881177375878
5.744727090632178 ; 45.170192104733026
5.719665761152021 ; 45.19027888653727
5.725550212940334 ; 45.1658891506055
5.704905452534881 ; 45.16706808157322
5.73626876096057 ; 45.171110873249525
5.710277218938938 ; 45.16936101004615
5.727168956061453 ; 45.170517408948214
5.7065899639409325 ; 45.175816432303556
5.704026250588929 ; 45.170343489686516
5.744561560290745 ; 45.18499183884213
5.736580474874894 ; 45.19742709918392
5.704739689562217 ; 45.16125677334715
5.719927976603331 ; 45.1936242518524
5.710409578966395 ; 45.17225824011559
5.711232152263289 ; 45.16920173292316
5.7330584152208415 ; 45.191756906123885
5.713685144047995 ; 45.195178452614016
5.735962617150589 ; 45.160229685907574
5.7176211599140325 ; 45.1943782213539
5.714764977422281 ; 45.19462991289086
5.743640846280996 ; 45.17972532197791
5.7069727925354705 ; 45.17555010346019
5.725476847870349 ; 45.16526743912067
5.704797877554992 ; 45.201734060971695
5.71158000274073 ; 45.16624553174281
5.743999316043208 ; 45.16994699947759
5.7218029992531925 ; 45.16261227270244
5.711222746339799 ; 45.165760965326044
5.713739259830205 ; 45.193663207225505
5.736381715185123 ; 45.16970840607987
5.7450211226376515 ; 45.170264843692685
5.712132776264076 ; 45.16788605685176
5.737101549570119 ; 45.160644768673095
5.74150135529957 ; 45.1748919689034
5.710642595089163 ; 45.173172893727866
5.731332911371559 ; 45.16921491496644
5.717670883463864 ; 45.17446867714947
5.702213179682653 ; 45.16367299552638
5.740964785765686 ; 45.19612771367192
5.717709119441439 ; 45.1754696316855
5.718347840135713 ; 45.19425941543993
5.720506899890982 ; 45.17617723500939
5.702566601154127 ; 45.16752411937759
5.7177794350534965 ; 45.162468145470385
5.739536037365722 ; 45.16290779416779
5.7273292706440095 ; 45.18778740437719
5.72307935730934 ; 45.18835608599464
5.745843225431814 ; 45.178612880386815
5.738762598195983 ; 45.19162081767548
5.732528640025333 ; 45.1848707847134
5.733668467705837 ; 45.16693622511102
5.7143685752276125 ; 45.198772176811374
5.736223249723714 ; 45.18830048774085
5.7123121354849395 ; 45.172456314838215
5.736185965366428 ; 45.17003572028312
5.742421628465716 ; 45.18935849936273
5.716390884744684 ; 45.18910837365566
5.718824613679095 ; 45.16982448152302
5.7291964219289655 ; 45.16650105450314
5.7251534077288175 ; 45.18553105802343
5.7215648197560585 ; 45.177224826096776
5.718159220255482 ; 45.177207969162254
5.70342863419527 ; 45.17055866980944
5.717687545197906 ; 45.16250026687528
5.728390924195081 ; 45.184638902731166
5.721710490863617 ; 45.176441114818026
5.735377079613135 ; 45.171289230015596
5.721445080025688 ; 45.19103012276054
5.7141029069514255 ; 45.17266952877742
5.710378954637946 ; 45.191471965308345
5.7222125537680455 ; 45.17757133681901
5.719413377131496 ; 45.160048701412464
5.7447448215293875 ; 45.18484261423585
5.7100501179296685 ; 45.160626152268534
5.745164805836047 ; 45.179220804658065
5.72063692930613 ; 45.190134927036134
5.714895861341242 ; 45.17531461797009
5.703955750368248 ; 45.18088615212315
5.7232989517030495 ; 45.185558753492515
5.72018346541629 ; 45.19408559081976
5.720151988162081 ; 45.191977727689654
5.704026462679763 ; 45.172487526183794
5.74167325325396 ; 45.19862295398818
5.736718631486453 ; 45.16952347184329
5.737536859699865 ; 45.17571557963227
5.71950822877229 ; 45.160453598406484
5.712715527419401 ; 45.18748491237082
5.720690359044602 ; 45.179544824080054
5.744827233926771 ; 45.19485650882483
5.714457794476823 ; 45.197301046422794
5.705069559708459 ; 45.165675739116004
5.714278284565313 ; 45.18043611853609
5.723466806779226 ; 45.18110014846885
5.7099829986824435 ; 45.1910387367054
5.739914446040234 ; 45.183121687296065
5.748963635360989 ; 45.175661103334534
5.714316048400171 ; 45.1691862719588
5.7341254288462045 ; 45.17186629687399
5.717241852070054 ; 45.19064757173058
5.7038823400833225 ; 45.18530965541512
5.710207207256669 ; 45.17534356589321
5.717433758347168 ; 45.16258549252773
5.705520534600672 ; 45.17729063813477
5.721784629903083 ; 45.18075943626247
5.73949588440885 ; 45.17615927153607
5.725529113638376 ; 45.16659227533116
5.732760254210695 ; 45.169677415641765
5.72565243243545 ; 45.16620839051337
5.744202458245871 ; 45.178691387732954
5.732675212242511 ; 45.16293890115966
5.735766080039742 ; 45.17139304221783
5.72172594066416 ; 45.19418291279032
5.704949870523813 ; 45.16903476695568
5.7360246858508095 ; 45.188734936056996
5.717475032055222 ; 45.16121223064692
5.708130294350005 ; 45.17348101324194
5.71393803777182 ; 45.20074415243637
5.723953485056777 ; 45.17300569557635
5.730089749489376 ; 45.16293491467548
5.706683567815449 ; 45.16383657512756
5.7399946278147524 ; 45.18287650705297
5.7401413465369995 ; 45.182939755869654
5.7073545970963275 ; 45.1800490311247
5.734538595003328 ; 45.169814265166316
5.750840245892112 ; 45.176343974216266
5.729360853073305 ; 45.164230955752224
5.719354736330847 ; 45.16975452509606
5.751812574777802 ; 45.17650941033281
5.712351440062017 ; 45.180312677652545
5.731930213528856 ; 45.17366136403734
5.708884742245282 ; 45.17238890547268
5.7444291884126715 ; 45.18869571566478
5.742264267213773 ; 45.17078436601641
5.722950154074704 ; 45.16299785836908
5.741647558134984 ; 45.17718297437027
5.735812561014127 ; 45.187109164246344
5.725606117709162 ; 45.16478922623013
5.7441212827158115 ; 45.18437507092978
5.734648852786692 ; 45.15213204706796
5.718219434012257 ; 45.19519470583805
5.741472979706331 ; 45.18853657861944
5.737136399951122 ; 45.19390038434534
5.738713215674671 ; 45.17331859430288
5.72952721960358 ; 45.16395423523035
5.74307542247254 ; 45.173945727212875
5.743079815013348 ; 45.175876693299614
5.7425570395930015 ; 45.176708302063496
5.724467592339464 ; 45.16157907965416
5.730556746493276 ; 45.17662139190674
5.743557609458081 ; 45.17913854855616
5.712882306155293 ; 45.18002571976755
5.7336718545426235 ; 45.182868437074
5.734390001392203 ; 45.174170082949836
5.7276078489753885 ; 45.160063573167854
5.703890361077363 ; 45.16326614812509
5.742298501664242 ; 45.18870298241598
5.7496692769298345 ; 45.17592401397149
5.735796853065927 ; 45.20056964728422
5.710000478710475 ; 45.158565964748796
5.720725475948045 ; 45.18297684857898
5.705941264150107 ; 45.16796101176001
5.73987665064173 ; 45.18931210961208
5.741307100816857 ; 45.195596997918926
5.739348661680243 ; 45.173485150161255
5.723945676074415 ; 45.16562667364782
5.721015936483358 ; 45.1916686329566
5.739461412017661 ; 45.17550987906075
5.719541997617816 ; 45.17302955819
5.740095972885277 ; 45.189901251077366
5.743677762156534 ; 45.19231827090491
5.724501589422998 ; 45.17293739022173
5.717100856087693 ; 45.19795719869714
5.74243166931957 ; 45.168783127693175
5.746018693528952 ; 45.19539126124225
5.72845598533273 ; 45.1728114893859
5.729055754792912 ; 45.160255225404555
5.728461051928333 ; 45.18904555694234
5.728724203649195 ; 45.16268495579603
5.7246075083473515 ; 45.175404783320445
5.704743385489076 ; 45.16328644325947
5.711389466374301 ; 45.19481586407319
5.716236487932698 ; 45.187294965627004
5.737509989191286 ; 45.17576994590805
5.74058124890869 ; 45.19036935761712
5.718355991274189 ; 45.19477443670781
5.738075160373708 ; 45.15686377048605
5.740948451470185 ; 45.19285846337831
5.712691612732512 ; 45.17301500426981
5.715449441258845 ; 45.18024298780595
5.743927696190422 ; 45.17381949651405
5.742514267693527 ; 45.17565629015407
5.71874356895173 ; 45.170878663548784
5.739720964853848 ; 45.192558734814035
5.7290233115168325 ; 45.18420263271293
5.727779474926062 ; 45.16009424292386
5.727284943246119 ; 45.166439176186856
5.7270169388925725 ; 45.16636978116991
5.722043090197494 ; 45.16302628686335
5.707527006365695 ; 45.15897661842993
5.724394422747687 ; 45.1608268453261
5.73946755958057 ; 45.15982377385614
5.733334876820476 ; 45.167720570248065
5.73941612549729 ; 45.19112177007533
5.739640491363422 ; 45.175865245993144
5.731333568543398 ; 45.18331184372098
5.7214329877808625 ; 45.16311148925639
5.711554466248487 ; 45.16215920742433
5.74271105904956 ; 45.16928684456143
5.736086352294915 ; 45.170461551622
5.740567274401436 ; 45.17858519080569
5.708657386357845 ; 45.17679294192158
5.727104791350037 ; 45.166375343534014
5.7445210726091736 ; 45.18514989279582
5.727122626972538 ; 45.19174445699667
5.73421723636242 ; 45.1631186441158
5.733317547444916 ; 45.18383602549295
5.710171149009384 ; 45.19727993733589
5.742864849896512 ; 45.17628440291511
5.735809515940328 ; 45.187780905030976
5.704425213836177 ; 45.181482745992376
5.714450244443224 ; 45.19796962437302
5.743854532158748 ; 45.188560929057175
5.736953351483067 ; 45.19582846527739
5.717520592338669 ; 45.19850514610718
5.739940584922443 ; 45.1997788232326
5.739001289963304 ; 45.175546243817216
5.721651398126066 ; 45.17703957613014
5.704917424445737 ; 45.16849661774377
5.738394697825958 ; 45.18786029406267
5.716394894754695 ; 45.18780910071766
5.718042366157347 ; 45.169811135898655
5.729658923322792 ; 45.18634620249132
5.704417107526255 ; 45.16446163441373
5.720330641838583 ; 45.19124431741358
5.70697045278858 ; 45.180042751227205
5.719660329457155 ; 45.17775760495415
5.7299726150985375 ; 45.17635381435949
5.705659283913968 ; 45.17723923353914
5.730994811052512 ; 45.18504873665701
5.736760388646559 ; 45.19451193753109
5.70999469920368 ; 45.16037503033673
5.7020464414308805 ; 45.16802664760517
5.741001944831823 ; 45.18916028037918
5.744466351221108 ; 45.17524483098197
5.713491395554509 ; 45.17525372757401
5.702512590817376 ; 45.16780774767658
5.718282381443662 ; 45.17464233954438
5.7256594886747 ; 45.187843567388036
5.732573361885946 ; 45.16905423107929
5.702056845147248 ; 45.16502228274615
5.7185116118213 ; 45.177525934002745
5.732271327485108 ; 45.18423295865518
5.716227428448888 ; 45.19595783259289
5.747987857443307 ; 45.17981360832583
5.72091185579963 ; 45.1901668444256
5.736138063161311 ; 45.17073358841824
5.744201143491671 ; 45.183191153021525
5.731311175214961 ; 45.16618888852477
5.733244885098417 ; 45.1681610361479
5.716611941841198 ; 45.198198132977105
5.7255104102938725 ; 45.16697781994881
5.741367513077306 ; 45.17436373141961
5.732409233468669 ; 45.15250355740612
5.704838883813945 ; 45.17059316416458
5.733849491326166 ; 45.16114634117111
5.725882356695596 ; 45.15931150151095
5.744869026989076 ; 45.19494425588466
5.702220739907782 ; 45.16910834520144
5.716939838989804 ; 45.1981125823074
5.711158959137256 ; 45.19884772105177
5.7333965262630855 ; 45.20000393446439
5.70542180915878 ; 45.176891511635205
5.710141324757386 ; 45.18993760925438
5.730223863165592 ; 45.16302445132684
5.716450792038727 ; 45.18773444658484
5.714444237419174 ; 45.16857735246466
5.719624889016219 ; 45.19015389907327
5.706497314511919 ; 45.17649640059899
5.7400660131095576 ; 45.188857611870056
5.7266391075532015 ; 45.19042475519509
5.732998034895836 ; 45.182063594458164
5.733760307256974 ; 45.163527709405905
5.7029423218424276 ; 45.20358513074154
5.711919466601591 ; 45.19902563385105
5.704060219905374 ; 45.170619134839676
5.718754427848646 ; 45.170611976200476
5.722361138405322 ; 45.1716814905184
5.733743030073391 ; 45.16800466845918
5.712490567018725 ; 45.19777864534617
5.707623734511046 ; 45.18020401876776
5.704187068956883 ; 45.16780506318006
5.7096428691467125 ; 45.160763745512426
5.732453035940621 ; 45.17315726892725
5.740914060226443 ; 45.19105735816861
5.729341728226224 ; 45.164250476090515
5.735279506250035 ; 45.16557484989218
5.730076255652357 ; 45.17687505467651
5.711669096982598 ; 45.16678486575203
5.744397414817046 ; 45.185408901810646
5.7241418505681105 ; 45.186782667756084
5.740987757834434 ; 45.19616861492732
5.716979481534977 ; 45.16141772170697
5.720295981482896 ; 45.19473467124391
5.740562709468582 ; 45.17701719548988
5.716263503442384 ; 45.19709869982281
5.734440315050425 ; 45.16753899773772
5.7070247295759176 ; 45.161164024415626
5.739719896291101 ; 45.174453519126985
5.743913923178605 ; 45.17191886789351
5.725652775512137 ; 45.16575897699425
5.7260709769169935 ; 45.16194840325656
5.748787032715243 ; 45.17561764914032
5.711614500465763 ; 45.19416841849005
5.725459882642163 ; 45.16566498067189
5.745177509127837 ; 45.19558995327807
5.724227056750909 ; 45.18121916013236
5.709974658181955 ; 45.16143031432865
5.74434217292135 ; 45.17442971839543
5.714761997732695 ; 45.175716771176624
5.730973134500132 ; 45.185901739192815
5.7404823687833595 ; 45.195293730599786
5.713857443433981 ; 45.175464431427336
5.741457242925792 ; 45.194042966879366
5.7234367431647355 ; 45.163096123737354
5.718067107376954 ; 45.19276483178259
5.714049253625314 ; 45.172793636593546
5.73683454303973 ; 45.19746354161302
5.7340506866534895 ; 45.18194164453264
5.705007474041883 ; 45.20187420509578
5.737940170324705 ; 45.166803028365464
5.7195456153048605 ; 45.18467983784646
5.738937693764003 ; 45.174754385049475
5.741668386884789 ; 45.17957765762362
5.73183141282164 ; 45.18891272612328
5.727721092875152 ; 45.18382509063911
5.732675210982366 ; 45.1653045638901
5.713305269421965 ; 45.191728418194955
5.734138494608025 ; 45.19644056560882
5.744123696646264 ; 45.19361730382077
5.716322245028865 ; 45.1971232978764
5.738553937433603 ; 45.188039101171356
5.710312341418388 ; 45.1913438190749
5.72214239502349 ; 45.162295679330086
5.740258413928353 ; 45.18885729823724
5.729348936151599 ; 45.16195169604012
5.729460322749622 ; 45.189456320080716
5.741905394632355 ; 45.18865845717037
5.726313510301785 ; 45.18166187387731
5.739412311918209 ; 45.18401916511873
5.735501786512024 ; 45.17073662970025
5.705529562463326 ; 45.17612009096961
5.719390396163768 ; 45.1909701462279
5.707086279812647 ; 45.164699348533105
5.725574824361935 ; 45.167462658978735
5.705782950419457 ; 45.165184567752796
5.73831433724289 ; 45.19225814628882
5.731779992004619 ; 45.18877277749401
5.734275212967282 ; 45.17366447368749
5.721014494748044 ; 45.176875514789124
5.7083647830899205 ; 45.199448689464056
5.74564238114003 ; 45.188423268597695
5.710106795860952 ; 45.16214748371153
5.737686290456065 ; 45.17266628385184
5.736791678286102 ; 45.193489403315205
5.7170912282594015 ; 45.18545892907107
5.704684695100571 ; 45.16447965109693
5.7375853635274225 ; 45.196816452368594
5.727505052967946 ; 45.163693610785785
5.734927229669427 ; 45.17206970198602
5.724576248764521 ; 45.16205301033617
5.721233210194365 ; 45.17717195029786
5.744842070643966 ; 45.16974019387502
5.74143076293662 ; 45.18835674712741
5.7277771402311926 ; 45.17803998638771
5.703537471642981 ; 45.169497582162045
5.7186287588145195 ; 45.16100669449187
5.733931679449648 ; 45.168386293648304
5.7070728594302125 ; 45.16655933465735
5.728510664685093 ; 45.18435562403901
5.743823569212284 ; 45.174921507735995
5.700234685148797 ; 45.20515843410845
5.727414230163831 ; 45.15923596903732
5.744691382248282 ; 45.18764713064694
5.733200758375492 ; 45.185722980496365
5.730707685899063 ; 45.16647718851031
5.720055097976208 ; 45.17722723934157
5.702260820445686 ; 45.17018040823254
5.732657131386952 ; 45.16901460283248
5.717338187340738 ; 45.17512174346381
5.729574201525858 ; 45.186336542671405
5.71688196347395 ; 45.19176635395804
5.712980405276576 ; 45.18015844464049
5.727346270145359 ; 45.18447344856257
5.745058393851953 ; 45.171138936871515
5.725523737670073 ; 45.16677302461144
5.72328133404279 ; 45.172078371637554
5.733667596206509 ; 45.1693454049109
5.710555009940403 ; 45.19495097889675
5.728871344009066 ; 45.18516295501843
5.728851246221817 ; 45.165346449513244
5.722672490203506 ; 45.16940023963102
5.745086039265387 ; 45.17121755318635
5.737605247738531 ; 45.17572897957411
5.714119083400771 ; 45.193550459730716
5.725903633339765 ; 45.18144573998612
5.726978207233434 ; 45.18426412248835
5.719513996044098 ; 45.16128395097269
5.709562602902321 ; 45.17483159415947
5.734045243616557 ; 45.1595806275635
5.724567130497169 ; 45.17135318726905
5.743568682103945 ; 45.17889469206049
5.741332874398132 ; 45.195082815821436
5.743972976129185 ; 45.19378559936177
5.705338761244936 ; 45.181183464645386
5.708568159378522 ; 45.18588465232856
5.717270136925027 ; 45.16946454744575
5.727469530634308 ; 45.18483843297427
5.740795198956972 ; 45.170634908579885
5.741016810016223 ; 45.19284607061885
5.733034798698068 ; 45.181918979504104
5.714353149174582 ; 45.1869498627505
5.744883509174744 ; 45.18709943787938
5.729707320356613 ; 45.164600518000334
5.706305238418781 ; 45.17601352309315
5.713448029877522 ; 45.19142556223929
5.705021405756001 ; 45.16497761821996
5.7114131816083775 ; 45.16575224359579
5.74411360131431 ; 45.16986139123097
5.735502288130311 ; 45.16686384191954
5.719114995784126 ; 45.17885774845216
5.717706089554909 ; 45.175320602070684
5.704178713893297 ; 45.170625295562466
5.749042380753074 ; 45.177852305898206
5.728914988923813 ; 45.16359874310916
5.706381004676561 ; 45.16558576390826
5.712054404700968 ; 45.173435920161886
5.713417961764903 ; 45.20047365844775
5.724712265679379 ; 45.15958900843436
5.728595071418912 ; 45.184628026844436
5.7181062845071775 ; 45.19538223553732
5.732334073374417 ; 45.153446055181796
5.744811972033744 ; 45.178735582700945
5.719749732316347 ; 45.190523937303226
5.708274028434291 ; 45.19938944950409
5.732623480797571 ; 45.17835639007692
5.7245113575921245 ; 45.16649757116814
5.740085476883905 ; 45.19396148522893
5.729206320329029 ; 45.18558814605821
5.7332809220366245 ; 45.185616028517174
5.738885564659423 ; 45.167508968602974
5.743317698405603 ; 45.169245768006206
5.725418955469984 ; 45.166821330262295
5.704574313556323 ; 45.16073419561742
5.70696996060702 ; 45.17996959958858
5.742257804199418 ; 45.16948130793501
5.714627449592856 ; 45.16900325203742
5.705820025855014 ; 45.17401066816198
5.715240307916362 ; 45.18549304213289
5.749821736888337 ; 45.17595803345767
5.742176713477056 ; 45.17260332704434
5.735444936513764 ; 45.17221778208579
5.717442926728613 ; 45.19431116929518
5.705687475971962 ; 45.17665537094631
5.742169535314579 ; 45.179232148402725
5.722295975664783 ; 45.17711868093037
5.7361220304260625 ; 45.18271087275047
5.705819522900168 ; 45.201089705572755
5.709747918774588 ; 45.19881170728047
5.735038409207559 ; 45.16807429509162
5.705111748041967 ; 45.17225587426216
5.705798131848918 ; 45.163307274118736
5.737772227873693 ; 45.192659050325354
5.713677658333623 ; 45.175289883313035
5.744976503224427 ; 45.188570386830534
5.725631723631662 ; 45.16695918692247
5.732751345722854 ; 45.16970411685295
5.737134345187314 ; 45.190048731419715
5.7283169390159525 ; 45.180213497518935
5.735852942917069 ; 45.17130432459776
5.727998404797429 ; 45.18518927364423
5.74332436950497 ; 45.172992336107285
5.705063413743614 ; 45.1816461844719
5.741393874015008 ; 45.175858644825325
5.7337237497033104 ; 45.16851222467259
5.705039149491721 ; 45.16524999467145
5.7359869382849755 ; 45.17323791866637
5.706382762523547 ; 45.17576480982656
5.740062079737342 ; 45.17135608095837
5.731972700066262 ; 45.16974413894125
5.727272983385458 ; 45.16516782560467
5.745404656624067 ; 45.17470009976911
5.745161140865625 ; 45.17317650589294
5.708511629017964 ; 45.18014307532043
5.705358554693563 ; 45.17609109306124
5.71411541454047 ; 45.18037278573264
5.73600141056983 ; 45.188144591419636
5.719630947597001 ; 45.177631644864945
5.7072574389758355 ; 45.16358837367567
5.703294670563406 ; 45.16756126128823
5.726337135986337 ; 45.15999479539295
5.732676441905657 ; 45.169685122773664
5.739323647036095 ; 45.16645992321507
5.73080001891236 ; 45.159511029861946
5.731744496120539 ; 45.18223869091684
5.719941170221918 ; 45.190120292926736
5.7466874897011735 ; 45.17515509809147
5.725729833530261 ; 45.1646873304609
5.713546086368351 ; 45.17543661737144
5.73854299944098 ; 45.18921053899374
5.73743904566878 ; 45.19417142073741
5.7385485072651905 ; 45.19898482392706
5.714061666715297 ; 45.18933218633927
5.742789810652956 ; 45.18861426304801
5.727381070804107 ; 45.15939875942838
5.734709989571986 ; 45.18710395964188
5.7212161608046 ; 45.178202386878354
5.717600065045246 ; 45.16253036525712
5.73700547079874 ; 45.170090819054074
5.708262319947183 ; 45.15907236169465
5.70700068492718 ; 45.16474236933529
5.72985411940409 ; 45.18567280503526
5.7274959324041275 ; 45.16284828815686
5.73355525188325 ; 45.167040119206206
5.702602926835034 ; 45.203538129617584
5.720552764266986 ; 45.17737358056358
5.708843854086226 ; 45.16809499911543
5.737627585992649 ; 45.161106639019046
5.743557109655719 ; 45.19439296055565
5.707697583775041 ; 45.199527440559024
5.744629161526158 ; 45.1926932913406
5.73082684478899 ; 45.17765797075006
5.732045089024672 ; 45.1934013044301
5.7070789470021355 ; 45.15958798036267
5.73934647224064 ; 45.160387182752046
5.7150294112917885 ; 45.18023706712962
5.738665440900323 ; 45.171265424995006
5.720323840385366 ; 45.19036230503629
5.70935515967751 ; 45.16068374743635
5.718487435790333 ; 45.176903144201106
5.7039881170613915 ; 45.16772144650284
5.728947972255522 ; 45.17262911371951
5.740234449682965 ; 45.16623817192843
5.718684427245213 ; 45.19441694009368
5.731470267006823 ; 45.16852869785517
5.728501252740967 ; 45.17774020211044
5.7042289988646955 ; 45.18016399400891
5.723420408659108 ; 45.19226984606634
5.725885595458714 ; 45.187857941885255
5.7238489814460864 ; 45.176024385983574
5.71987292480478 ; 45.19010277619895
5.73069870385402 ; 45.162803964296415
5.727336471624599 ; 45.166343413098936
5.740524119869249 ; 45.17371267498281
5.707560500021113 ; 45.164511566581595
5.737257647605357 ; 45.190082148795895
5.710557424714486 ; 45.16240936752199
5.724583242136273 ; 45.161783812436845
5.71099823689068 ; 45.19458169472944
5.724911153662487 ; 45.18330619013706
5.71901307041584 ; 45.17777282650865
5.714193367004245 ; 45.178884264114444
5.713281734534316 ; 45.195358673197646
5.7043531675813 ; 45.16891108147373
5.734662283422 ; 45.16045506155802
5.7312377176118785 ; 45.16530273904405
5.716326387649431 ; 45.19638764949057
5.737033276016688 ; 45.190156738119455
5.721761645826213 ; 45.16326058811059
5.72701059840219 ; 45.16372972497479
5.710617255162083 ; 45.16339794382451
5.73442189509199 ; 45.16743931667685
5.734373493825613 ; 45.18758456964054
5.721108011190472 ; 45.19460293888085
5.730502564802197 ; 45.1766083881698
5.729384942775555 ; 45.17715322451687
5.744409994932038 ; 45.17860133633175
5.7132280993777105 ; 45.17282282832473
5.719389341503201 ; 45.18858188579722
5.707351345455171 ; 45.161032235131906
5.726259941599628 ; 45.159282128441525
5.74316310447184 ; 45.19334507414514
5.727836491637304 ; 45.184841916452285
5.719276240637369 ; 45.18919487547878
5.709864027116374 ; 45.17489417603177
5.729285860231792 ; 45.1845649989322
5.723527341509959 ; 45.15975435207598
5.709719597103008 ; 45.17328596038178
5.734900597279702 ; 45.17046530434775
5.706959461089894 ; 45.16821004079544
5.719198537122064 ; 45.17651803794272
5.71322953338766 ; 45.18047407600221
5.706467052999312 ; 45.176505047692864
5.706431418712509 ; 45.1655942272023
5.706168778441624 ; 45.17712387424384
5.740340954213163 ; 45.166311699536806
5.737135052029009 ; 45.170237513879506
5.710383628318665 ; 45.17540005430811
5.734414879337882 ; 45.1675980853741
5.72847157085315 ; 45.16599983352
5.743103331623785 ; 45.17817717013338
5.713055655381503 ; 45.17586047665661
5.733572241067695 ; 45.16820183553807
5.710197838957129 ; 45.16688113834605
5.733193967364428 ; 45.167461776669434
5.733180667404968 ; 45.167903072357596
5.71661467138824 ; 45.175266412035015
5.709973391952271 ; 45.17319352244881
5.738886872601262 ; 45.17228393254031
5.74478875260363 ; 45.1854780300812
5.738526894000752 ; 45.17370200872995
5.7191581041133865 ; 45.181130910122754
5.725415252255199 ; 45.16694032445517
5.745886420424423 ; 45.19355837174117
5.722635005540753 ; 45.16601338319169
5.7101595477484794 ; 45.169382423289385
5.73013901841953 ; 45.169664758143874
5.726803386672898 ; 45.159154626288355
5.72025020222159 ; 45.19121873961758
5.742196397056969 ; 45.18888894739165
5.709989100717581 ; 45.159219653746526
5.706995538149598 ; 45.200491120162035
5.703637513975313 ; 45.16562703577545
5.73321307187614 ; 45.19292516242253
5.718626215595091 ; 45.17000685756381
5.738171652339759 ; 45.17079975860651
5.737343730577814 ; 45.16672149735665
5.717427775642986 ; 45.196324516908646
5.720032488392957 ; 45.175907288914416
5.739973016283207 ; 45.18325074414956
5.722710743639517 ; 45.16941933724934
5.713153961185119 ; 45.1712270013584
5.7311175223904405 ; 45.18386203748106
5.7396809677021565 ; 45.164463240551996
5.74063238973926 ; 45.167430345761844
5.7426045583120215 ; 45.17670487594221
5.738241592625502 ; 45.16915800707238
5.744547998623829 ; 45.18542874411124
5.729050081311869 ; 45.18325673845913
5.744049306190502 ; 45.17098623748541
5.729335512067746 ; 45.183159563772584
5.741055446935218 ; 45.189191687170634
5.702083466012428 ; 45.165487011983366
5.724486773862271 ; 45.16256503986659
5.725431981233678 ; 45.166563537852696
5.722068636717886 ; 45.18905951989465
5.727527541613007 ; 45.19171577009198
5.7049602535310395 ; 45.16923843121453
5.7386997017139345 ; 45.17530462774156
5.733223698322418 ; 45.19961404007829
5.728285575698302 ; 45.16378179194574
5.736550149928065 ; 45.17093763018769
5.706850306980897 ; 45.16388461336395
5.741422948202364 ; 45.175038104708754
5.738930199876036 ; 45.17622485606363
5.702335561214685 ; 45.171616352599806
5.739840249933393 ; 45.16209534612572
5.705586461650175 ; 45.17732322772138
5.722919815109451 ; 45.16304945863591
5.716917297835887 ; 45.19851296842682
5.734846217088424 ; 45.176924963498244
5.740886897843336 ; 45.19311282075525
5.741045359850934 ; 45.19094635653264
5.705703002036387 ; 45.16311912502386
5.713493926555879 ; 45.17498320539236
5.71560567018296 ; 45.18992415593591
5.7218358505079125 ; 45.17909988236534
5.706528911358551 ; 45.15897435836643
5.727083065320356 ; 45.1843688988173
5.72922677639363 ; 45.16466335938136
5.721267761089952 ; 45.18053895188366
5.740398493125644 ; 45.18983017183443
5.720024328289181 ; 45.194218664517116
5.728458500928165 ; 45.16434731963895
5.729796043661328 ; 45.18310309826325
5.741171467583647 ; 45.19058269612516
5.720041376301659 ; 45.180121579279096
5.719329380837858 ; 45.17579436616279
5.713411788054911 ; 45.18981727412803
5.712878733325634 ; 45.169057970471435
5.740950620156969 ; 45.18912096114494
5.711718029082882 ; 45.172778051714
5.725499633166508 ; 45.16479483166071
5.71013766588734 ; 45.18987448846595
5.7337107847322875 ; 45.19124007390258
5.73104857950735 ; 45.163067506109556
5.721252316627196 ; 45.16241037119874
5.736871343210624 ; 45.16556429186402
5.72004696395623 ; 45.1937900696063
5.706663966048005 ; 45.16331693457655
5.7310106287678435 ; 45.165958471700115
5.739437322665683 ; 45.163100512717975
5.732053333862774 ; 45.18859913183677
5.708087807485482 ; 45.165464631519
5.734697496101977 ; 45.17370925599816
5.705514474266951 ; 45.15897852954108
5.730750686420361 ; 45.18404241171969
5.728164656373108 ; 45.16036249015551
5.730888551593223 ; 45.18579750455759
5.724640153417501 ; 45.186295224322365
5.720814680037537 ; 45.177288519362854
5.740800165860866 ; 45.189493434875864
5.743044641564602 ; 45.19303064096871
5.736382318550139 ; 45.19428397669121
5.706375345839578 ; 45.175391523880734
5.702329922698976 ; 45.1691107247751
5.7305445453585895 ; 45.15905158698537
5.703481648375203 ; 45.17052323324784
5.727301129476003 ; 45.1705351189939
5.745777723437804 ; 45.18836448650961
5.738328739330188 ; 45.17053838202833
5.74859988111182 ; 45.17572317674774
5.744579887414279 ; 45.17212893335413
5.711826383948695 ; 45.19939596741702
5.7025881537887795 ; 45.17168845181568
5.718792115718051 ; 45.16065479557673
5.725648047883698 ; 45.16659239718342
5.740168185534063 ; 45.190725062995796
5.713116685450579 ; 45.18015939809836
5.721752796405485 ; 45.15989894092684
5.742613220841489 ; 45.176379210045134
5.7397984352024425 ; 45.188835188179006
5.743322812539196 ; 45.19240065931187
5.740159888708321 ; 45.17175695087157
5.725558362084533 ; 45.16607871870088
5.726028920972321 ; 45.190246576259504
5.725302599237427 ; 45.18119040712542
5.70820129477172 ; 45.1755342620559
5.738541429911771 ; 45.19223317023186
5.737512479677489 ; 45.17253061313178
5.705970699936721 ; 45.17992632602658
5.733116162140337 ; 45.16484420875244
5.724996611108211 ; 45.189077441810845
5.741840797956372 ; 45.1767388558082
5.706092877467523 ; 45.18339119728681
5.707655111899053 ; 45.16451063503713
5.713576480643857 ; 45.171396963035626
5.72613702911885 ; 45.16730205357081
5.711859339408331 ; 45.1938038928737
5.743836371101086 ; 45.17053593475279
5.706330286358788 ; 45.1656098718027
5.725649367324568 ; 45.16657364515987
5.739589132744049 ; 45.19931642071496
5.722600865035516 ; 45.16354585936806
5.7354124778011455 ; 45.18048362929518
5.717141519775273 ; 45.19680550323943
5.708623863403297 ; 45.17326476242874
5.733138018787599 ; 45.19634370156919
5.741413935632292 ; 45.172359556309814
5.726784769252592 ; 45.167667340699865
5.728383507840151 ; 45.166181190162824
5.729438948554346 ; 45.16203790720757
5.70774845838207 ; 45.16860930942805
5.743260823389574 ; 45.193350704061025
5.743194770220278 ; 45.19311114628227
5.724016495722021 ; 45.173111238333775
5.716504041860247 ; 45.18317408495174
5.7305995758404515 ; 45.177484118653176
5.7367526412132355 ; 45.1935706621368
5.7380547809544815 ; 45.17093412040024
5.729004286562712 ; 45.18031788568769
5.7372281683462205 ; 45.193875460636406
5.707985380230332 ; 45.1647159709997
5.736781484718761 ; 45.193201159488545
5.73794890130566 ; 45.16188044304195
5.70868837579856 ; 45.16078763648653
5.709895225156355 ; 45.17545475543829
5.733768296766822 ; 45.168064625798415
5.750445875259912 ; 45.17007883195441
5.7197072550603885 ; 45.1597820573324
5.725073559788184 ; 45.17294164406727
5.707068568998664 ; 45.172949776940534
5.723536567441197 ; 45.18084430928013
5.729422793508842 ; 45.18430805319932
5.70526534429545 ; 45.16135560345951
5.737571534842856 ; 45.170770169311055
5.726946911933163 ; 45.165932981202126
5.73895612791606 ; 45.181975592951126
5.715464656199072 ; 45.17702197979095
5.730708989815784 ; 45.177522138737075
5.734247364737471 ; 45.1668851810159
5.716720853141691 ; 45.191586933703924
5.711653175083989 ; 45.17506353870601
5.730774779578012 ; 45.16579809151283
5.712032397167707 ; 45.1678752183849
5.732015082678196 ; 45.193095480911474
5.720953462305734 ; 45.17719443184014
5.739809608820499 ; 45.16041685925483
5.743286028315315 ; 45.174984768000044
5.730506328488433 ; 45.16591486170084
5.738445680408415 ; 45.18913143689909
5.733737686702484 ; 45.16811162622847
5.741860587730196 ; 45.18887886150751
5.729184572299687 ; 45.183505627447836
5.722866522156721 ; 45.16899107874405
5.7131226584821055 ; 45.18041008769699
5.732405355303884 ; 45.16938031590591
5.716607949517304 ; 45.187645514321446
5.739119530461408 ; 45.188263175332224
5.737769994627939 ; 45.17131962407075
5.732237858624087 ; 45.16373791427473
5.73840843058141 ; 45.16691082654421
5.742445899366839 ; 45.167537242156534
5.705900617824191 ; 45.17252490793985
5.714354097599678 ; 45.19886066556949
5.734596871237926 ; 45.19186682592034
5.730148357594634 ; 45.1830500352018
5.730658812330697 ; 45.15945554438733
5.73617229947726 ; 45.17006461205315
5.710380385423492 ; 45.19291357494948
5.718285022704336 ; 45.16994294214598
5.732282071066792 ; 45.17088125459641
5.741181660185798 ; 45.19337754275106
5.728406588548281 ; 45.16563866572958
5.713073042603878 ; 45.19183239122329
5.743847505376849 ; 45.169831849526766
5.705765843684428 ; 45.17199748184032
5.735978112154227 ; 45.17328410361962
5.728428077921575 ; 45.18439369139009
5.748543919050786 ; 45.17555465997997
5.705738959961288 ; 45.16505000618283
5.727259959070086 ; 45.16622835914749
5.716333161946029 ; 45.18866699322055
5.719089935180753 ; 45.187552280146505
5.741592455766655 ; 45.188787014999015
5.718105097423834 ; 45.17576997809732
5.713432157172438 ; 45.19445027125851
5.739025420616385 ; 45.19398208414943
5.7030648391366485 ; 45.16757950920572
5.704004119189043 ; 45.16785601060061
5.717311058322525 ; 45.1946807109936
5.7133636440093465 ; 45.18475595508183
5.720369338958348 ; 45.180395118059096
5.735063222387811 ; 45.17379203552411
5.723005333493828 ; 45.16949064468409
5.711404204269348 ; 45.1949896201737
5.744718278773622 ; 45.18198263176178
5.7184042964152635 ; 45.17665548903347
5.7104946888441495 ; 45.19321129835889
5.702819829123399 ; 45.165748853921734
5.7132428498593795 ; 45.1803957580535
5.703793237937051 ; 45.185225583623144
5.741108347032079 ; 45.18985047945438
5.7069424758673835 ; 45.16371699688931
5.735404187393797 ; 45.17235322185289
5.740996104441028 ; 45.19337153763926
5.735415703897978 ; 45.18036944874699
5.732669736507902 ; 45.165053577199195
5.718369444339107 ; 45.162344215486605
5.703855708132322 ; 45.171480624359155
5.734287571528087 ; 45.18237878118156
5.740855126821988 ; 45.19869731431471
5.7308385969172635 ; 45.161292468862925
5.729144801628151 ; 45.161630454004175
5.74199346548329 ; 45.18902351344671
5.726326888723478 ; 45.191929671814194
5.703936921516667 ; 45.18104708522259
5.713491824646769 ; 45.18716320727037
5.7427588271261785 ; 45.17664453923694
5.71009515108213 ; 45.17529269435243
5.7097029540024185 ; 45.17549494491812
5.7281865161974 ; 45.18088545097438
5.719578824403804 ; 45.177659275028795
5.717060420279463 ; 45.19768954683427
5.712778451641688 ; 45.187204678647774
5.744496684525286 ; 45.17218885088634
5.720478380667683 ; 45.1762103027032
5.7326977675909605 ; 45.1781729752172
5.706480968264539 ; 45.176887236076475
5.710129501460008 ; 45.18981482593731
5.729897011886157 ; 45.163691492454625
5.7255557254957825 ; 45.166188694721754
5.737690158754048 ; 45.18901958615841
5.719228269770396 ; 45.1605116284404
5.714371935804234 ; 45.18577869896796
5.735467124190242 ; 45.17043005263585
5.7067680835013315 ; 45.16630334064511
5.742309497826036 ; 45.17486376247227
5.731230881488805 ; 45.169255353609024
5.711869532267897 ; 45.19930874144274
5.7206685879668004 ; 45.18272017093612
5.704777262255458 ; 45.16330652423143
5.707607390948383 ; 45.16104970157348
5.7202054221027945 ; 45.17644021637744
5.703919534786015 ; 45.17063119840688
5.732549468601224 ; 45.153585858734424
5.7365856994629745 ; 45.187452237629074
5.731059490462059 ; 45.18393464553714
5.72271859987876 ; 45.16326894045446
5.742643127895551 ; 45.16768788930009
5.724406463431026 ; 45.16055687898774
5.7106481327964795 ; 45.16907540028838
5.733343213388633 ; 45.19628701529738
5.739719893220734 ; 45.16870132640619
5.725084471537041 ; 45.15954808917517
5.736825979104094 ; 45.16678193637781
5.7453452601346395 ; 45.19561898072343
5.713658435628888 ; 45.18033577319782
5.718645589231556 ; 45.17045560445661
5.725642711835381 ; 45.16671885757886
5.736170613902354 ; 45.169207734222105
5.711901208678118 ; 45.168955395825044
5.724454142482724 ; 45.16191670690227
5.728640982926643 ; 45.159830306702716
5.725693719707117 ; 45.16528475996329
5.714432728976711 ; 45.17493228912495
5.723843069030878 ; 45.15951531901433
5.739472944932052 ; 45.182032118612405
5.742377761333903 ; 45.18925167567902
5.728621823254162 ; 45.165193467984864
5.7408219127997455 ; 45.19295674340159
5.744947142877194 ; 45.179206648435084
5.705783091485333 ; 45.1649316528746
5.7114704518808175 ; 45.16915943954992
5.737182357022338 ; 45.190789622371625
5.743626289799122 ; 45.17264144224904
5.714474344710609 ; 45.19892453354593
5.711721381381521 ; 45.190754380243746
5.73273711957937 ; 45.169023996694165
5.739662443103487 ; 45.165612711274086
5.724650563706299 ; 45.16727204283893
5.727634286199052 ; 45.1839316922169
5.745660816718979 ; 45.19332669859388
5.727229387866288 ; 45.19182187929866
5.737249041298313 ; 45.19433726300086
5.7360618278356625 ; 45.15682519279357
5.734083642857236 ; 45.19158256882302
5.720091968588355 ; 45.16111136082959
5.7305855519948725 ; 45.17672608986471
5.710213539508471 ; 45.190663205526604
5.714172076918892 ; 45.17541028501587
5.717516152157764 ; 45.19295375133761
5.745239525355051 ; 45.18850179305321
5.744739473068672 ; 45.18812695857055
5.724015375495524 ; 45.17299484352218
5.727106224293983 ; 45.18786272058503
5.732532621928161 ; 45.1671964076999
5.724412877172835 ; 45.18109535632913
5.735285117014867 ; 45.172317707643536
5.702151617548389 ; 45.16381229317015
5.71852966561694 ; 45.170271091992795
5.724305468439712 ; 45.17139393637372
5.738020332066864 ; 45.169685158166885
5.7364200180071645 ; 45.18860090941275
5.733502591560778 ; 45.167911371028836
5.716562767566225 ; 45.187884280304566
5.711657501411371 ; 45.16541265152317
5.723699695855317 ; 45.162235757713376
5.724287487101283 ; 45.160417431503284
5.706377888348067 ; 45.17541194887329
5.714779915301271 ; 45.188598336687654
5.74202744813248 ; 45.17367453129529
5.707369718281681 ; 45.16354584475521
5.704817767518331 ; 45.165415749496404
5.706976183764929 ; 45.16315409267646
5.712296132461136 ; 45.19269855990249
5.710965583571706 ; 45.186245694457156
5.719349626202822 ; 45.16004724147584
5.732599342200726 ; 45.16910411244651
5.730693323444835 ; 45.16082063087223
5.7501014880687915 ; 45.17574326562709
5.744569297313898 ; 45.185431920567154
5.735647108124907 ; 45.17241888742279
5.727138032183591 ; 45.17052572466699
5.725337546433968 ; 45.16815758372867
5.743584572918403 ; 45.169846986977255
5.719270536010298 ; 45.16011608067748
5.744836155263443 ; 45.17050463385467
5.72563619221635 ; 45.167210729816915
5.724660252594203 ; 45.171483301587244
5.711727698807898 ; 45.17400085805167
5.732373435649091 ; 45.16966376085952
5.735782886937117 ; 45.18745578718327
5.723458788299319 ; 45.1921218478687
5.735525730871328 ; 45.16562782025797
5.723804114869224 ; 45.16129564613133
5.728614080187247 ; 45.16504744932106
5.733197716332201 ; 45.16807136747316
5.7399755502325736 ; 45.19201867453062
5.717335030082315 ; 45.19439840998089
5.711399034849972 ; 45.19774196071313
5.735704946962454 ; 45.160263257381516
5.728745518974073 ; 45.16305607834777
5.711433359779742 ; 45.20041560724411
5.721031276813096 ; 45.17726051732882
5.711811885946072 ; 45.1994497569659
5.713384013973124 ; 45.189001487030126
5.739587779158004 ; 45.16803701742822
5.725568919165633 ; 45.165782086739284
5.723022903349603 ; 45.18907607160468
5.724861120364814 ; 45.16970676827106
5.737490516054389 ; 45.18929437065741
5.72502094032664 ; 45.17475813585084
5.7251991034493175 ; 45.175081400768455
5.744939637463352 ; 45.18814182669292
5.7361264853648235 ; 45.17100016010225
5.714259289969678 ; 45.17342250329361
5.736529084441923 ; 45.16320625950492
5.749683641743231 ; 45.177126557553116
5.72178983399244 ; 45.19026813835751
5.738591191565825 ; 45.17251281000032
5.712218006162521 ; 45.164865032865606
5.709495915395586 ; 45.175095475670275
5.729275616299185 ; 45.16196453263317
5.726556679595877 ; 45.175476606485304
5.706515360636042 ; 45.16554021446952
5.71051903744059 ; 45.16932032757261
5.7456626307821566 ; 45.19443130963019
5.731620557324425 ; 45.18824557037433
5.717816707469188 ; 45.1697637535143
5.7353971348704 ; 45.19495867631959
5.719751081762382 ; 45.194227570457834
5.71035971747023 ; 45.19224732762724
5.733228428772421 ; 45.1691933034911
5.7318899457589625 ; 45.19338276446459
5.725518573777201 ; 45.16433818529105
5.733467167528167 ; 45.16787368294451
5.731567499047217 ; 45.16239228828305
5.733281777195022 ; 45.183313411859686
5.731174365801042 ; 45.16605127573462
5.73460233901254 ; 45.183051843184295
5.725224272214162 ; 45.18517348266871
5.74650011916216 ; 45.1878839182698
5.726482741265049 ; 45.163098543829385
5.742732797483373 ; 45.17972086498603
5.7266284412991 ; 45.18464556514175
5.718229765412356 ; 45.16092409999273
5.719710556696357 ; 45.16101789002088
5.721896585120362 ; 45.18077076764484
5.724938646533058 ; 45.17298336771746
5.743704705398812 ; 45.18376885498145
5.729075842801278 ; 45.16340143094962
5.725970135971474 ; 45.19260113183467
5.73246648405582 ; 45.16910245796815
5.723070408848936 ; 45.1598310521809
5.709843782031629 ; 45.15902944245081
5.744189079865543 ; 45.173237424919826
5.713422529477303 ; 45.172482885666355
5.740616000968258 ; 45.19008428702945
5.73461425940999 ; 45.17088358432092
5.7102502467276315 ; 45.19167352393335
5.73314817451531 ; 45.189941487638805
5.706460607314156 ; 45.17214155053149
5.728465562616372 ; 45.18430930154545
5.727039037125433 ; 45.16490647837493
5.738711497544044 ; 45.17351358022872
5.716289007959168 ; 45.197621158501796
5.710995854076383 ; 45.16772310513232
5.706199583082762 ; 45.17569708379131
5.713210053546208 ; 45.172463708075824
5.74447134834961 ; 45.188697884768686
5.722124776869197 ; 45.177556186714526
5.720331681221063 ; 45.17985770861612
5.70726484900589 ; 45.164218795459114
5.730356943652923 ; 45.16092599069677
5.73505963868291 ; 45.16000010535922
5.717306294941674 ; 45.198123822075516
5.706218228999041 ; 45.165471935672635
5.737133852136313 ; 45.193079580117505
5.717513281848257 ; 45.161125659922064
5.72003600411461 ; 45.194849910470644
5.7184242644194665 ; 45.194846924517044
5.739698111580952 ; 45.16460959587005
5.738910749943865 ; 45.173343606967364
5.731368765750248 ; 45.16254380401678
5.704344941827048 ; 45.180285276990844
5.7416085772096785 ; 45.19051231218591
5.747350110218246 ; 45.18835836063963
5.738745765831753 ; 45.195559642905906
5.727286351349627 ; 45.18405826771198
5.725227324774356 ; 45.1680591982173
5.706457004274434 ; 45.16546688348681
5.72533697299291 ; 45.18630214069931
5.737322104050434 ; 45.190359676411845
5.744381155260572 ; 45.17443827205339
5.744910242887526 ; 45.1744970171781
5.725517779667424 ; 45.16689557788123
5.730272302277899 ; 45.15952832718918
5.705528818213751 ; 45.16388455610781
5.748870261032292 ; 45.179427917622945
5.719089071515979 ; 45.190924711368986
5.729245329304993 ; 45.17292350484381
5.73383530695464 ; 45.19107408835148
5.7445398035359645 ; 45.18838529769108
5.728987982377915 ; 45.16184711828587
5.724394651741521 ; 45.17356099930251
5.704345107739762 ; 45.18440554613546
5.72703131881824 ; 45.16369427101022
5.7453667742834575 ; 45.18187162539217
5.745091503974065 ; 45.19509202269447
5.735388695163844 ; 45.19631221551879
5.735618004733196 ; 45.16683119416537
5.72952670627883 ; 45.163783781613326
5.703096440925497 ; 45.20333834536393
5.7318100182056515 ; 45.16150250889786
5.719165025796147 ; 45.19093616455868
5.734968142566428 ; 45.16808982849644
5.721578941197917 ; 45.1908355568086
5.7432936657300075 ; 45.17354191893604
5.742684898434435 ; 45.171610773145225
5.729035031843782 ; 45.18344242705721
5.720066492417691 ; 45.19497365373492
5.728677399436288 ; 45.18275390525551
5.740136081639334 ; 45.20010953794297
5.734190940379379 ; 45.19633561147676
5.735189185187837 ; 45.172466134096965
5.729383418083879 ; 45.182841348926814
5.714543426023672 ; 45.184157906509775
5.741435526703071 ; 45.18848696882192
5.727114485206717 ; 45.183719471112035
5.73493212239249 ; 45.160343733885284
5.744906092855037 ; 45.19324851523552
5.722074866652862 ; 45.180704850727246
5.72112948555683 ; 45.17829334707806
5.722415481044788 ; 45.16263813187217
5.718772980076078 ; 45.170267350945714
5.728469915758278 ; 45.16381126736315
5.725223324819731 ; 45.18135794136032
5.724578561098967 ; 45.176149604489616
5.710990882131537 ; 45.1911032623672
5.735019087859009 ; 45.18679863504681
5.722654157548879 ; 45.165240113341234
5.7160786674377615 ; 45.196595914412796
5.745850337916767 ; 45.193737618307736
5.745780518808224 ; 45.19333427804046
5.733281968800959 ; 45.19974472783171
5.71159044461143 ; 45.193915472494915
5.733580563881985 ; 45.167829578338306
5.716861639630669 ; 45.19841453029159
5.711438007538914 ; 45.19425069964145
5.717951745243198 ; 45.19545605457487
5.739723619759013 ; 45.19906791070485
5.738858014242301 ; 45.167367320519645
5.738300684163567 ; 45.18910332853464
5.735807501267595 ; 45.195791828715336
5.741500071445321 ; 45.18850336748311
5.713114107340874 ; 45.18888086707005
5.7335313857064305 ; 45.168515443371994
5.7269451969111875 ; 45.177394953568374
5.709195297961001 ; 45.1683624206632
5.716983276858206 ; 45.194819434703675
5.737195942007949 ; 45.167435546530555
5.733819946796185 ; 45.19132443535524
5.718415001404805 ; 45.19427771647316
5.706098496143172 ; 45.177001419838774
5.713763300569481 ; 45.1940533679225
5.709040914646222 ; 45.19245575374566
5.735207821685724 ; 45.172862789690335
5.725647777458128 ; 45.16639456407132
5.703748246807195 ; 45.16447127027503
5.721099890861698 ; 45.16469785081353
5.745922919008135 ; 45.19538179129664
5.7310690332404945 ; 45.17709181180534
5.733777927703482 ; 45.16800933168557
5.735094562653751 ; 45.16160649381886
5.737328757491653 ; 45.19256330044562
5.724136486216613 ; 45.16455763317954
5.733332927922421 ; 45.19479533555202
5.744366278183992 ; 45.194112193381955
5.7343321935558516 ; 45.19641255207183
5.725514535563775 ; 45.16449275083827
5.732853805541797 ; 45.153670978485096
5.711995351566594 ; 45.16776737643495
5.702970061212533 ; 45.203432208989604
5.743995145143602 ; 45.17931547760503
5.742334755471762 ; 45.17711920537281
5.706059680380038 ; 45.17174623737597
5.704142264429774 ; 45.1691425682866
5.711720181377344 ; 45.164867212057544
5.73604988958464 ; 45.17046063589333
5.7323670937698195 ; 45.17307398494744
5.745878546711938 ; 45.188329864998224
5.730533371775007 ; 45.194551214094446
5.717682112739657 ; 45.1610586172809
5.717070129397203 ; 45.1743248357748
5.713931442038032 ; 45.174826344522906
5.729892971044052 ; 45.16975634028327
5.742346546459289 ; 45.175763291723214
5.734558973039871 ; 45.16737785975666
5.705316965338053 ; 45.1631630312149
5.711892041229545 ; 45.19928948330226
5.733402281882224 ; 45.1549705413472
5.71388833645862 ; 45.175326539331834
5.716230058496716 ; 45.19038483298016
5.719201134046102 ; 45.181080401501575
5.7332016760953035 ; 45.16808966560298
5.750158694605001 ; 45.17703787852503
5.736402801461708 ; 45.1714768813257
5.729804906648473 ; 45.184366701990456
5.72779628241185 ; 45.183767158002375
5.734295693710586 ; 45.1731836470474
5.73399635309714 ; 45.16679823598852
5.741302497323735 ; 45.188652068250114
5.713726329849545 ; 45.19442798587704
5.730688534843665 ; 45.18481738596786
5.734943247334942 ; 45.18979463272926
5.713564892048817 ; 45.191643820924234
5.743524631905485 ; 45.171559378150604
5.738627861361941 ; 45.17236561921685
5.742618728530327 ; 45.168048414532024
5.732666321464555 ; 45.15410060101222
5.749246666553315 ; 45.17602951491152
5.726818238129333 ; 45.18423212656843
5.728624983854476 ; 45.18370185271958
5.744415768757998 ; 45.16929719595816
5.7171299123265085 ; 45.198003315930826
5.713370222422699 ; 45.20057217112204
5.720072718408013 ; 45.19198766506799
5.735056980291092 ; 45.15908876125193
5.722333972644298 ; 45.172344327558626
5.715281417075484 ; 45.1764527154243
5.7257048129406485 ; 45.165216852881095
5.7318801383015066 ; 45.1655054441113
5.725510355349315 ; 45.16694474601977
5.740766389800046 ; 45.19567621176672
5.732161946934211 ; 45.18418646886825
5.71134120554864 ; 45.165802729421976
5.734991495749092 ; 45.16800684761651
5.705996364305234 ; 45.18339522535299
5.709518664986913 ; 45.17482540265139
5.739477460518942 ; 45.18937967680008
5.725106779803541 ; 45.16084986198796
5.741835651959515 ; 45.173867482900995
5.705477022636733 ; 45.16562402093836
5.738976061282594 ; 45.16394194749828
5.729447764479159 ; 45.18381438515517
5.718686001183834 ; 45.177284385897536
5.702958915137005 ; 45.17094579454854
5.713207617580464 ; 45.17249935496085
5.712322778263125 ; 45.1647635756945
5.728190832933317 ; 45.16058448928675
5.7193100296704795 ; 45.17573522482015
5.7137283527994525 ; 45.18497446934484
5.743630158838604 ; 45.18002723202759
5.71616173711574 ; 45.18257015133447
5.717319280873918 ; 45.196690020309646
5.738383308985366 ; 45.19074719547855
5.729658634791165 ; 45.18618289425294
5.722716304780532 ; 45.163366707789905
5.727017183217556 ; 45.16585552803513
5.733852684397882 ; 45.17072622207003
5.72957606896451 ; 45.189135246130945
5.735508325658852 ; 45.16034616409627
5.732758354302011 ; 45.16497102385723
5.731245960858877 ; 45.16649012870943
5.719429695333729 ; 45.16074604403766
5.706053767013393 ; 45.17302127690479
5.739085596863605 ; 45.17273626151123
5.727408776655158 ; 45.18823820596866
5.728181250499444 ; 45.159186231644966
5.710982683398183 ; 45.19386651060051
5.706306501600494 ; 45.17196932554635
5.710437003735862 ; 45.16748825078387
5.705349743942739 ; 45.1646938697916
5.715439384169095 ; 45.189913675036344
5.733877599180968 ; 45.15901235777337
5.733181629966074 ; 45.167473389727945
5.736600371448686 ; 45.16936006124374
5.706296034237307 ; 45.18338169025435
5.7242928909905055 ; 45.17358044051554
5.729662531809487 ; 45.184484407694605
5.72590824255264 ; 45.163641808175676
5.735411011666341 ; 45.18014386240381
5.729206623479522 ; 45.18027522448875
5.7054961339709545 ; 45.16379266008297
5.744184966950881 ; 45.178701661584036
5.7334778739984715 ; 45.16797405761237
5.703642121039967 ; 45.192250071630234
5.725567276428837 ; 45.16191508099726
5.721546690169841 ; 45.159876392265254
5.712579071307333 ; 45.19936876518195
5.737388617422452 ; 45.189830735833645
5.713151413156146 ; 45.17285934519221
5.7334661321589575 ; 45.15946609178903
5.743099688444646 ; 45.185091029830936
5.744430996840001 ; 45.18218557530752
5.731866746662271 ; 45.161464481017475
5.733220377797185 ; 45.169208759913936
5.7338554299340005 ; 45.194428005581784
5.713655166123132 ; 45.18018219678463
5.7359427425758645 ; 45.172159815667136
5.724567348293635 ; 45.18105111964023
5.735004685201559 ; 45.16723091511053
5.742461035633218 ; 45.18026960782827
5.729544545925365 ; 45.18387567990366
5.722942361491874 ; 45.163698095166204
5.730973029355731 ; 45.18384379329515
5.738183593157952 ; 45.189346764565656
5.73246668510433 ; 45.16476952757818
5.728749300379284 ; 45.16291964719372
5.732766297938835 ; 45.17314695827531
5.721531163228172 ; 45.1649489910754
5.742315118979247 ; 45.173117585647
5.735073084015192 ; 45.17029718185785
5.728367942896378 ; 45.17033036769311
5.718297603049526 ; 45.194874458808094
5.733811413203536 ; 45.166920794494935
5.741264804588965 ; 45.19396960705902
5.717658466520824 ; 45.16348284529979
5.744219718860456 ; 45.17522925362496
5.707330148203757 ; 45.16392305780147
5.7327604146420805 ; 45.1841686900605
5.730547503257803 ; 45.18502799543695
5.734977560707834 ; 45.16981225913151
5.71014891379807 ; 45.158909765396494
5.724088403040432 ; 45.18727685522896
5.7221702711708025 ; 45.162888939740405
5.734853533517376 ; 45.173893474224265
5.739522135117857 ; 45.18947857979523
5.718835197671963 ; 45.176200498994106
5.739905350577979 ; 45.173400902186735
5.709335184432712 ; 45.172206562603954
5.7486495552318635 ; 45.17954687268856
5.732665772175636 ; 45.16903117872828
5.7318530443955815 ; 45.16649681688788
5.733535990294649 ; 45.167487891090786
5.715913542392502 ; 45.193779684402905
5.719749597982718 ; 45.184979161842065
5.7286800725712395 ; 45.163786372800914
5.70594860981793 ; 45.177055828094176
5.740388606854266 ; 45.17494184194873
5.738868898204551 ; 45.17532311836949
5.736004384619617 ; 45.17368647102138
5.7067650349671855 ; 45.17527984359625
5.720471897060072 ; 45.169562961917144
5.7172365592778664 ; 45.197530968311405
5.707212453329914 ; 45.166087511714565
5.7319315486368785 ; 45.16175940194355
5.728848247788116 ; 45.15972302587929
5.704839372414313 ; 45.16581582050773
5.734329555020631 ; 45.16744066274755
5.727410455650764 ; 45.15917115140007
5.737333346656316 ; 45.197604019603055
5.7066147985009446 ; 45.16693599580489
5.733511303671337 ; 45.16744977974193
5.735616235230845 ; 45.16004138616041
5.740101045383123 ; 45.19581103385507
5.73576411217258 ; 45.159761864442125
5.731700124388831 ; 45.18326059113843
5.716123224371578 ; 45.18867885275733
5.714631275227047 ; 45.169172302014054
5.7105154848038 ; 45.17536200272919
5.710283699836581 ; 45.16235293145596
5.705122870897898 ; 45.18092399753959
5.725618837006964 ; 45.18145556541889
5.704101954224822 ; 45.168592237765736
5.72701759811981 ; 45.17755829466619
5.738560085350444 ; 45.17025614785514
5.725455696177382 ; 45.16581951457865
5.730131064276069 ; 45.16832301811526
5.727344765764186 ; 45.18455243155716
5.710312310624411 ; 45.174727462451116
5.743686084490468 ; 45.192460424517684
5.7394417658914785 ; 45.162969626326706
5.708120090267654 ; 45.16095521472127
5.711577841555379 ; 45.19920950293505
5.738461475282914 ; 45.17118251639567
5.738780318400145 ; 45.18813041452929
5.746443414591244 ; 45.18730303040311
5.704873170540778 ; 45.16506151502311
5.745493889251266 ; 45.17257133072754
5.744869608612773 ; 45.184860608119855
5.705674729374871 ; 45.18308116744164
5.73444795212621 ; 45.16564785882119
5.714248865002033 ; 45.174910261139765
5.744426802375468 ; 45.171486994075245
5.710550831180325 ; 45.17524628102488
5.7102454678039445 ; 45.191102295631744
5.709131932982292 ; 45.16929756293361
5.720665080261205 ; 45.18483574940476
5.742068358950563 ; 45.18896919267688
5.733055573657206 ; 45.167865804958204
5.716486088782759 ; 45.19550600640898
5.711070784857642 ; 45.194924194186676
5.718388729903076 ; 45.162295810347494
5.722425408407629 ; 45.1632026477257
5.721263705179303 ; 45.179322679440894
5.727845055442985 ; 45.18332358569707
5.705306961721287 ; 45.16672496338215
5.723637071037711 ; 45.17198013512123
5.724424042043846 ; 45.173565636285154
5.740056359497289 ; 45.189272445627324
5.716451381004582 ; 45.182909694929386
5.7238421756188425 ; 45.16505891221553
5.710820299559533 ; 45.163205064345334
5.728370731889012 ; 45.18470756989795
5.7455082401217705 ; 45.18748932695915
5.737486789467508 ; 45.173072626945796
5.732512192630527 ; 45.16967544686915
5.702403863282741 ; 45.167445796093126
5.705192524702663 ; 45.16654457327044
5.736030044093262 ; 45.17095752870777
5.724386442747507 ; 45.17125624022695
5.708647606627407 ; 45.18006892275188
5.731013544355661 ; 45.16675761094077
5.737135123042897 ; 45.1941051977971
5.744182731687486 ; 45.17907980952441
5.705044156019755 ; 45.1866830145123
5.744810332855894 ; 45.17855191569362
5.703427038709043 ; 45.1635369688414
5.704128417801268 ; 45.16704568807465
5.739646098507406 ; 45.18938804660598
5.711292300358967 ; 45.16050402399379
5.710527884425556 ; 45.16341539467097
5.729596567628527 ; 45.18616407315954
5.7427322629903665 ; 45.176312616875414
5.723551791020515 ; 45.164639783122766
5.732890641227826 ; 45.152070161132144
5.7331886685000635 ; 45.16479899417396
5.704398439974958 ; 45.18166038826588
5.714035150584252 ; 45.18504631691298
5.736509552488603 ; 45.17044694298411
5.729514816816836 ; 45.1857522510738
5.7294228922516 ; 45.18428571765825
5.742012068664768 ; 45.17478472612868
5.7161853057756185 ; 45.19250778740814
5.7184443372722695 ; 45.162056646558625
5.720045948791753 ; 45.18037001651688
5.725562718160533 ; 45.167676974561935
5.700936268174191 ; 45.20467485661201
5.72853702009468 ; 45.16225482290717
5.731438133410609 ; 45.17360862510515
5.737404747468057 ; 45.1892934590777
5.704779066998844 ; 45.1690837466728
5.712443270698392 ; 45.172854301157415
5.7198605266246485 ; 45.19426448530791
5.703529715814041 ; 45.16162862750282
5.7443031573955645 ; 45.188722166772564
5.735888861121374 ; 45.172830836338875
5.724253808120441 ; 45.17577429773386
5.725616794768264 ; 45.16850042024922
5.727014877142205 ; 45.16295498688231
5.705451924704517 ; 45.17712885779377
5.740989160035163 ; 45.189316971344475
5.711331102880623 ; 45.16664334557759
5.721777606584761 ; 45.16244480398097
5.74697097614167 ; 45.175227988965865
5.729058223050769 ; 45.16018726310238
5.723707561035753 ; 45.17305712421952
5.7395717242954145 ; 45.171603830512694
5.71330358441151 ; 45.1897134969198
5.7353252941595345 ; 45.18029059264064
5.7066519864129 ; 45.172540038145016
5.708748873192977 ; 45.169546589922106
5.749863335075751 ; 45.175980348867654
5.741200429716859 ; 45.19294463265239
5.71371827393968 ; 45.1938528903352
5.711254971060505 ; 45.19128938411214
5.730970706565888 ; 45.165504812147006
5.7342814884296835 ; 45.17315550427837
5.734810819479252 ; 45.165555411290555
5.734202506517163 ; 45.16682085210344
5.727058236754872 ; 45.16605417952225
5.715625073280377 ; 45.178271200627584
5.739086015201152 ; 45.1920659572847
5.734410080478077 ; 45.1930485290603
5.745139699826707 ; 45.18725323547015
5.703986175990619 ; 45.167483826824004
5.724372664350099 ; 45.166415673676376
5.735296821815138 ; 45.17694278953062
5.724772292085204 ; 45.16131277567738
5.744433002134435 ; 45.17514544653966
5.742347457466212 ; 45.18735906093726
5.73764596392094 ; 45.17258182310772
5.72967735175625 ; 45.18305673637733
5.736537930791679 ; 45.169747885595996
5.732857611911083 ; 45.18992762524042
5.740477792644774 ; 45.170353245336486
5.725680281871157 ; 45.166049142036506
5.745857713741324 ; 45.19438159656792
5.726878566919635 ; 45.19292528667164
5.736819635542293 ; 45.19373422796311
5.733831786515053 ; 45.19185667855463
5.727778825622562 ; 45.18319872378984
5.729108395599812 ; 45.16418226195417
5.745457794253681 ; 45.17811655732536
5.724851857382247 ; 45.16253045298
5.730594023301543 ; 45.166031496173474
5.7324636627972385 ; 45.1691141030605
5.711752140674784 ; 45.17463608769724
5.70602300611016 ; 45.176673841299795
5.744782386928944 ; 45.181844117862354
5.730700726588513 ; 45.1628694542833
5.7236895704159325 ; 45.17364237849281
5.746427575272654 ; 45.1875709795103
5.705915355460763 ; 45.17400603468288
5.72119429348004 ; 45.16287690657894
5.7507530372927596 ; 45.17632148052032
5.712259884310227 ; 45.17248152534601
5.712989561121697 ; 45.19567231858527
5.726099752736786 ; 45.16269211336313
5.726426327530951 ; 45.188334921883204
5.745117566256462 ; 45.19372223572378
5.736972349860622 ; 45.19023471955413
5.713350515721584 ; 45.180349877833116
5.7455785152225305 ; 45.180158374875155
5.740320095532583 ; 45.18962912612669
5.721113052387161 ; 45.19428450957699
5.737771041347426 ; 45.160994375062465
5.726793238634055 ; 45.16752028249233
5.7355421810296745 ; 45.19501271371946
5.704711725767805 ; 45.180241353760664
5.706850498334865 ; 45.18011989558832
5.742263622092624 ; 45.189306975412016
5.7130932994702 ; 45.17299987213032
5.739762822456604 ; 45.189249070269874
5.7190657057917305 ; 45.16159165414833
5.734172272365484 ; 45.163454051463205
5.739855468028796 ; 45.16220846168576
5.703749691041446 ; 45.16747649354144
5.732352426539227 ; 45.1693731339254
5.716542620281496 ; 45.19605041014896
5.7210217382410296 ; 45.17031010007671
5.711103764557593 ; 45.17886087157214
5.7161386152297355 ; 45.19362900645863
5.731438635613749 ; 45.1834784983941
5.73296794494697 ; 45.194182582068954
5.734822598048801 ; 45.170446339287814
5.725125963455035 ; 45.190194877285414
5.704410800075452 ; 45.18393695121222
5.726720803033707 ; 45.15927501052709
5.711524917094999 ; 45.177178245218734
5.732352280543036 ; 45.16949833583718
5.7208012529973065 ; 45.172773933380995
5.7292860416844205 ; 45.183696270260235
5.722035697619664 ; 45.177420784141034
5.737015441868475 ; 45.16886769118412
5.729352767686231 ; 45.18303027848545
5.708845750557038 ; 45.19908016630602
5.717534783994423 ; 45.19872199737764
5.730994747140518 ; 45.167209854373944
5.740230768244346 ; 45.195440357994826
5.721178843178273 ; 45.15995076251715
5.714689046297771 ; 45.16914995789891
5.743350180227594 ; 45.174977169963
5.713704215287093 ; 45.19356191449651
5.719262317383611 ; 45.16976662247609
5.709765785961138 ; 45.15925408164075
5.7151520031594725 ; 45.18032574681831
5.731175136287446 ; 45.184016316606694
5.735929395266031 ; 45.17367487706342
5.7309564375058475 ; 45.17750479497745
5.704138073424712 ; 45.171689077647116
5.717980655171161 ; 45.19540541700891
5.721482273518463 ; 45.18224121228686
5.74148666912041 ; 45.17543363909179
5.723041341192766 ; 45.1663697891685
5.726755267267354 ; 45.1650866701131
5.706393251423945 ; 45.18337864570855
5.741771155411459 ; 45.18895943573656
5.7233058005549635 ; 45.159610865845224
5.719084904397731 ; 45.173368292278816
5.7200764798562895 ; 45.191498093522696
5.7280771213843105 ; 45.160219166473205
5.705696357342964 ; 45.17728463800799
5.735729798627481 ; 45.194970915271156
5.729619190563741 ; 45.18294038401965
5.727443032281506 ; 45.1647866052527
5.710575722062111 ; 45.19149020750892
5.744305213446144 ; 45.17575141728981
5.7137070005817545 ; 45.1803556178031
5.734737009876315 ; 45.171008593446366
5.711354431559032 ; 45.19886332685027
5.71218862198334 ; 45.199285940681655
5.7435104603545275 ; 45.17971437093296
5.7313488007334055 ; 45.16665008203028
5.7311296298242835 ; 45.166448947409414
5.715402710125983 ; 45.19418276230085
5.740320478724342 ; 45.19026361852656
5.736860219687639 ; 45.18225497456047
5.736120201186728 ; 45.17154593307775
5.72425861447327 ; 45.186608406579666
5.735703626368593 ; 45.18797241523603
5.7189562762261446 ; 45.17079287465897
5.736419425064726 ; 45.194895178606565
5.736277126506088 ; 45.187388409478054
5.724457422086064 ; 45.161850783388225
5.724105855975742 ; 45.167199586361214
5.746864256794931 ; 45.188370912101234
5.740754587854657 ; 45.18914419057601
5.714416134764512 ; 45.1965855574288
5.702972079568993 ; 45.20325996383845
5.735537140914317 ; 45.18693724498365
5.736982102484004 ; 45.190211795746855
5.720014769150393 ; 45.177116280432145
5.725438647074393 ; 45.16955288909341
5.743450160589339 ; 45.17156770939062
5.737737574941967 ; 45.19215583640963
5.704713329958755 ; 45.170603381600365
5.731057530672354 ; 45.16245637419554
5.7467610462444325 ; 45.18836887923955
5.718043345443203 ; 45.18042260020859
5.741881744752244 ; 45.18865114660342
5.73054741252687 ; 45.165612379209314
5.733629287661753 ; 45.167706855465426
5.739694894035513 ; 45.16448106366991
5.72527236977242 ; 45.1749612726509
5.731839988971407 ; 45.1766597334262
5.717770741305967 ; 45.16102641413697
5.72722140162619 ; 45.18774810601674
5.731187000834147 ; 45.16807178452102
5.707336477241013 ; 45.192202376001404
5.746826654953317 ; 45.175175347110375
5.731084548360542 ; 45.165657441399226
5.715360611376587 ; 45.177508772667274
5.716588717502445 ; 45.17547985735121
5.710416828477863 ; 45.172245298401826
5.732206337399909 ; 45.16376927199469
5.716334949020481 ; 45.17751636451221
5.740567224201054 ; 45.17200373579518
5.712943877646757 ; 45.19547213016475
5.713408421977807 ; 45.16638503992224
5.736027203954078 ; 45.16907755652876
5.737752931722987 ; 45.17024214980056
5.7297815368780585 ; 45.16765805177373
5.728041758295265 ; 45.18352786636505
5.730766631515852 ; 45.18412587441742
5.711048449912118 ; 45.164677410650675
5.734765419612472 ; 45.170387134163235
5.744705853395791 ; 45.17050782054377
5.737380598437951 ; 45.194053900833346
5.742817370417503 ; 45.16752852791928
5.719314919258656 ; 45.16048263349562
5.720944444198549 ; 45.19432784562712
5.713481953436418 ; 45.19493530326116
5.734053701708037 ; 45.160299001078116
5.737085753659808 ; 45.19620576322724
5.717385763597342 ; 45.19798954588088
5.718132769523469 ; 45.17585184066431
5.738960203287854 ; 45.19096068371742
5.730296258939142 ; 45.18395074913606
5.734011997052755 ; 45.19562640722758
5.718327181816572 ; 45.19500409108554
5.7506201454531265 ; 45.176176423837944
5.734698881627958 ; 45.18714449299618
5.733687050425815 ; 45.17071294280732
5.72603987445278 ; 45.19229588249926
5.7176565956178464 ; 45.17606424056143
5.713172733563222 ; 45.18024082541007
5.72540697491212 ; 45.16713469910938
5.719014620889233 ; 45.18142061376037
5.734062325222508 ; 45.18957587162372
5.735238088001902 ; 45.18041074706953
5.734180517718737 ; 45.17356215748632
5.740231066571384 ; 45.19559624840157
5.742267892795576 ; 45.17679765928898
5.72674364294869 ; 45.16536881324898
5.747981354811812 ; 45.1814041599594
5.730149636220494 ; 45.167873469495746
5.719616014022433 ; 45.186159964667546
5.735483220146544 ; 45.18030612455329
5.706806685122488 ; 45.172462291525264
5.737010361852782 ; 45.19700047875245
5.717792279791633 ; 45.18092842092647
5.734524128810941 ; 45.17269791792754
5.737068199437078 ; 45.19292502273109
5.718376018485051 ; 45.16239253514263
5.737091153598382 ; 45.18938614818107
5.705427020962485 ; 45.18839341889416
5.7124592233669516 ; 45.17508373997774
5.711012875855843 ; 45.15920088254917
5.704250802632662 ; 45.170947868422815
5.7043217066824266 ; 45.17108203563598
5.7380386765867994 ; 45.17316729806851
5.7122845660548665 ; 45.17249398673146
5.713129905890469 ; 45.18004313739298
5.715186573651978 ; 45.17697321932515
5.72159315915045 ; 45.1777229027862
5.724376308060139 ; 45.17357938485157
5.719637612621352 ; 45.179951772449975
5.72589152706611 ; 45.168345700132775
5.727287994682483 ; 45.17798860085652
5.739700300087937 ; 45.184134549514496
5.74330711503847 ; 45.18819442999642
5.702439930844409 ; 45.16329272415383
5.741412656437017 ; 45.18864128123382
5.72731746119827 ; 45.184148082032785
5.715015558512343 ; 45.190722418307935
5.730817188089634 ; 45.177402616753675
5.725715146501404 ; 45.16491874131611
5.709818030137151 ; 45.16866626291174
5.735044869276377 ; 45.17160430951448
5.731585075413856 ; 45.179316851270116
5.710939324095772 ; 45.169045820179846
5.712548826365119 ; 45.17585879186746
5.736615704927689 ; 45.18753862080136
5.7200223533125865 ; 45.17538024430658
5.743673772078744 ; 45.17932200540475
5.728518902592445 ; 45.162722559442145
5.721909074767237 ; 45.163320414763355
5.739977322222977 ; 45.1887779975058
5.738276424775165 ; 45.18909505046845
5.698374796985587 ; 45.20674979572142
5.7224163210563885 ; 45.16259785427253
5.7107648359563905 ; 45.16304022449877
5.732259468369717 ; 45.162024039373804
5.724220609014976 ; 45.18921654474415
5.716316495838181 ; 45.19767339976386
5.704103543884939 ; 45.18016131207803
5.742760780983562 ; 45.178450203857246
5.727528250004173 ; 45.16319055241178
5.747987844542794 ; 45.18143436427024
5.745721798692192 ; 45.18837873552053
5.727215812241714 ; 45.163003286170614
5.736904361845167 ; 45.193094011029345
5.7066169960233255 ; 45.16114409431591
5.700584083399648 ; 45.205513180900304
5.739530610274477 ; 45.16303708835391
5.704599106391813 ; 45.16118923511803
5.707857870507604 ; 45.165697070876476
5.717631832483384 ; 45.19598431506404
5.729966946391725 ; 45.16150784891932
5.733826841804455 ; 45.19450115083205
5.7047843944963 ; 45.16612828849587
5.7270785657623 ; 45.16655214115364
5.728532595325759 ; 45.16238906650074
5.734143526046141 ; 45.19613605596699
5.743715498459765 ; 45.17206328726437
5.734095112592527 ; 45.16717959537537
5.738918264508985 ; 45.19168820922801
5.711774974415893 ; 45.199466382511964
5.722380619526875 ; 45.15971390152541
5.725458121397195 ; 45.16570757434604
5.744786043001602 ; 45.16957685897433
5.7147821680070034 ; 45.19259181661477
5.733173449625587 ; 45.19606918353723
5.732134591180305 ; 45.168098369999626
5.721231991552501 ; 45.178479247535776
5.723029781116208 ; 45.169527486978794
5.724004572702208 ; 45.18723788086241
5.739890217838919 ; 45.19905268425685
5.716334449605906 ; 45.19748035177733
5.718439266725115 ; 45.177490787840306
5.732655140359116 ; 45.16861376244407
5.742319724421275 ; 45.1681494746743
5.713880557083811 ; 45.175235211509026
5.706162145843194 ; 45.17602469086987
5.706403316107728 ; 45.17535977984007
5.716767739830425 ; 45.19735979155407
5.719358620620655 ; 45.17734699542102
5.728597687708252 ; 45.16086325224543
5.704966838606078 ; 45.16617219199877
5.7410984170999 ; 45.192733514653085
5.718073212674124 ; 45.1698797589041
5.71486998088301 ; 45.17907820911828
5.708056511098315 ; 45.19924870134023
5.704988559068061 ; 45.16975934736554
5.7174844800096185 ; 45.16204552788371
5.733014363025933 ; 45.167878260977346
5.725991198915447 ; 45.16042678614402
5.723694786937171 ; 45.17327194609609
5.721797599382732 ; 45.1632002877807
5.728750914163703 ; 45.18435726625293
5.725333612414206 ; 45.191580842063246
5.7427759692134055 ; 45.17658021506911
5.7085470464227255 ; 45.19282347730895
5.740794632820658 ; 45.18952511476742
5.735352692227957 ; 45.19004580616116
5.711808354253772 ; 45.19941809192823
5.744757186141644 ; 45.17046264132043
5.739635110409185 ; 45.1756943585653
5.7133166825098645 ; 45.1717108921292
5.734577520887246 ; 45.1698028623591
5.723212148140218 ; 45.16442108497993
5.7034835609291115 ; 45.17971507041443
5.725704246925336 ; 45.159323633948304
5.705699394008389 ; 45.16318468283244
5.713745288036681 ; 45.180187487737186
5.7043720202925865 ; 45.18529373169754
5.733680508385258 ; 45.18590582427921
5.738683962891355 ; 45.171229024541766
5.733584754542554 ; 45.19472838168394
5.724132625251149 ; 45.16465404699803
5.703933793270754 ; 45.18043177319239
5.706344478459579 ; 45.166437920100606
5.744899052188956 ; 45.193111291831734
5.741388841121631 ; 45.19488370626786
5.749099882602472 ; 45.17888825442327
5.7436316764491675 ; 45.171715636263365
5.741429990090869 ; 45.17068486295654
5.705170099977636 ; 45.17674185004197
5.710960914521239 ; 45.17497492532494
5.719136534947414 ; 45.16978402139249
5.733739208026953 ; 45.1686315800129
5.7141614812870705 ; 45.19894373181881
5.719278590597303 ; 45.171523507100595
5.731683611614505 ; 45.19433770263059
5.736614251628629 ; 45.18735243706709
5.713777801424969 ; 45.1727828086227
5.7382256588699185 ; 45.17354399282788
5.711857016216584 ; 45.173231143597754
5.74507260297835 ; 45.183362492699466
5.7411314334087775 ; 45.19033882473036
5.7295951035060435 ; 45.18612257530661
5.7058047646476515 ; 45.16387548385741
5.719417796331095 ; 45.17674183426961
5.724545457199516 ; 45.173072090533424
5.732593597856856 ; 45.155721240234506
5.7451342970834 ; 45.1705740742165
5.71127761806261 ; 45.19081768160129
5.725515588568872 ; 45.189748055267025
5.7187068770906855 ; 45.170670000752054
5.7388788303787805 ; 45.17534854946015
5.730808411406533 ; 45.1767260838241
5.722788020360132 ; 45.18069802257867
5.721933134755904 ; 45.162880847097504
5.73961367389883 ; 45.1598541696749
5.7490454224928325 ; 45.177290107620415
5.743443374320783 ; 45.17114543633461
5.725181320607218 ; 45.185236238097005
5.716462428601542 ; 45.18869133500557
5.7271123117337055 ; 45.18637389243913
5.719592583431893 ; 45.19416750135557
5.744368791655096 ; 45.19316442358755
5.708795778666887 ; 45.173249757348515
5.709744032559989 ; 45.175174281337426
5.7370435966318745 ; 45.16093660320123
5.711900222921881 ; 45.16771873596161
5.719752508077515 ; 45.19509353298122
5.74066188594902 ; 45.17684205166244
5.72434321854735 ; 45.16211697988601
5.712747894892847 ; 45.18769451083798
5.72679361059569 ; 45.18158328531145
5.748505129784315 ; 45.17555170767558
5.738041009201133 ; 45.175582244454596
5.744910807459623 ; 45.19503200323223
5.722568149002063 ; 45.17227875432698
5.746327849488661 ; 45.17499021512825
5.738560460550946 ; 45.19082576518589
5.737690432426167 ; 45.17555917315621
5.725645228589418 ; 45.16607107325636
5.705259441407714 ; 45.15889790852312
5.698993089739442 ; 45.2051209946905
5.7432635901941875 ; 45.188388643300286
5.738369585422383 ; 45.175263211118676
5.712198488857266 ; 45.19909837879642
5.705626756837493 ; 45.167979394993765
5.70459026865869 ; 45.16671357469269
5.741549082676646 ; 45.175259993252965
5.7472764964326 ; 45.175222206960996
5.733249146290971 ; 45.16481143625955
5.717847954440459 ; 45.16099490303354
5.7235488763252755 ; 45.17353893409355
5.728545826816728 ; 45.1641690910264
5.713939774503488 ; 45.18527535949209
5.711826364683929 ; 45.16910002791116
5.730371677620121 ; 45.177186111726826
5.713161328938157 ; 45.17460275745759
5.717536143713315 ; 45.175673060182774
5.738323415318208 ; 45.18794947530229
5.732697014918276 ; 45.168602724507814
5.735799180280817 ; 45.19421690041452
5.738045371027625 ; 45.17081097893694
5.717757485523849 ; 45.18121454157465
5.731567426576982 ; 45.162803555134595
5.711335083290288 ; 45.17490565778332
5.736653487352734 ; 45.196569699102554
5.730365961435127 ; 45.16647175894405
5.733377229088053 ; 45.16749269601796
5.730136311955125 ; 45.161930449056456
5.717602665944302 ; 45.17503706503325
5.712429358593809 ; 45.19033636675415
5.72897847464832 ; 45.18276177036064
5.728924408313432 ; 45.16339774237674
5.7412927352903225 ; 45.17436990259829
5.70346576653918 ; 45.189104175466575
5.726181119169744 ; 45.19170965493413
5.718171953734878 ; 45.18051021488105
5.716720046359493 ; 45.189419667458566
5.732885852862643 ; 45.155115207823705
5.702567467911046 ; 45.171229171400675
5.704346925853319 ; 45.16882700497215
5.730529307229746 ; 45.15907670302822
5.72599949686386 ; 45.19026832488745
5.736794001407263 ; 45.18750621633998
5.705088444679226 ; 45.175281246166506
5.73422677609898 ; 45.19614424297329
5.730296743716795 ; 45.19439619337337
5.7446666709144525 ; 45.19525645936525
5.712171635338508 ; 45.199277546414564
5.716618130861634 ; 45.197979726274255
5.706970832711003 ; 45.16545835598542
5.70928437378316 ; 45.19272387018623
5.732175779681872 ; 45.18862273825495
5.743285636267809 ; 45.170723296762624
5.7280221421588555 ; 45.16648932870754
5.726967768761409 ; 45.18629912872269
5.738468884196113 ; 45.1708593725831
5.718922065225257 ; 45.17769357682475
5.713844917287554 ; 45.19388232722611
5.751652194761287 ; 45.17228816551317
5.736358555744232 ; 45.194292514194835
5.71246263256733 ; 45.172704868546646
5.740940451470753 ; 45.17355423981259
5.718968159340047 ; 45.189541962536644
5.729412295124346 ; 45.16141315515039
5.703792911180505 ; 45.18526148773905
5.726923589402536 ; 45.18247368829898
5.706360943373495 ; 45.176648116193526
5.7348806400285115 ; 45.16955405112044
5.7222154437741555 ; 45.1627201286504
5.737473420184376 ; 45.19414070848921
5.738629304196512 ; 45.169677798655286
5.720225500376634 ; 45.19378980543732
5.725673369802925 ; 45.16199396906431
5.703705412329984 ; 45.165955448991156
5.735202565445883 ; 45.17142178749471
5.733854814133254 ; 45.170811342807696
5.714303970955071 ; 45.18913863772883
5.711187259841291 ; 45.169069633506766
5.704137706205239 ; 45.17988491396093
5.736798193459599 ; 45.18761938740486
5.719727508535741 ; 45.16106324384259
5.714805528447338 ; 45.19469331537149
5.713571870470411 ; 45.175480039588805
5.725417126445682 ; 45.16691084992041
5.71145615984303 ; 45.17334297992406
5.706472014848494 ; 45.17658632167936
5.729538865352527 ; 45.18466748524162
5.736520358765995 ; 45.19480576452121
5.744918909350459 ; 45.170741749201824
5.724220741649129 ; 45.17186786472064
5.7339457364005435 ; 45.16783746592788
5.724269741109069 ; 45.16733816425302
5.7162298056150185 ; 45.18867656825687
5.708614016399065 ; 45.16079816678926
5.738085743601158 ; 45.19434696056907
5.712322755872086 ; 45.17356995590626
5.728749862308897 ; 45.16296435971719
5.7266896073434275 ; 45.164608945338685
5.74358473083006 ; 45.17614698882895
5.727151041950804 ; 45.184340743249464
5.734397692985776 ; 45.17158583989273
5.721870388514311 ; 45.16313864540063
5.733836470252389 ; 45.19584414034962
5.728177542846289 ; 45.16095862993007
5.741003517483126 ; 45.18907477899781
5.733811628367213 ; 45.170890471816506
5.711658177829068 ; 45.17935578897436
5.714266406529335 ; 45.1993049942125
5.7346473676293455 ; 45.18767374314857
5.7348149281408185 ; 45.18985214000023
5.742025954583348 ; 45.18901251589549
5.732246167381503 ; 45.15398360648633
5.712920138373426 ; 45.166017701398246
5.710350521826159 ; 45.196896108351005
5.736314393949272 ; 45.171302170212954
5.732986888539572 ; 45.19907893674728
5.727666312533516 ; 45.15939449659893
5.7407592921414565 ; 45.19540411546156
5.73625391576697 ; 45.18828460585608
5.739625645293877 ; 45.19107371257707
5.711555619823274 ; 45.19415516851893
5.7291597491110755 ; 45.18020587380988
5.712805986663133 ; 45.16574008376803
5.71688831597792 ; 45.19801669844887
5.72163550442732 ; 45.17599890287
5.73573846894352 ; 45.171425997505125
5.7110292646663074 ; 45.16769358995019
5.730726849510871 ; 45.16944240945362
5.729452977602173 ; 45.15946685836144
5.718871165829837 ; 45.19089185397365
5.71639760447572 ; 45.19759189090596
5.739022819997446 ; 45.16060115950993
5.703303801553997 ; 45.18082821201909
5.713480956889764 ; 45.191827977205406
5.725739986720815 ; 45.16399205926468
5.724216210763401 ; 45.162180833297256
5.704554429411573 ; 45.164514030803716
5.735817612495087 ; 45.195044831073375
5.73662338280444 ; 45.18748151965264
5.7351549420118575 ; 45.1679838375287
5.713686582870044 ; 45.194511174615165
5.703195525260841 ; 45.17168111766135
5.717399644981991 ; 45.17530528274861
5.717472078957771 ; 45.175468208261115
5.736481625421457 ; 45.19719577309053
5.73705351254412 ; 45.197224534648775
5.742551253571176 ; 45.16756468569247
5.740507943430579 ; 45.1910835453997
5.720449473975582 ; 45.195111931866265
5.716427371660751 ; 45.19745532140284
5.7130817243119445 ; 45.18759405568815
5.737356846617951 ; 45.194375356598236
5.719686067285021 ; 45.194130289594625
5.7337407263074205 ; 45.166736900976204
5.729748306250244 ; 45.18919208077832
5.7355079062085625 ; 45.19640598954287
5.732361798769908 ; 45.17323616969094
5.735814060178568 ; 45.19499927900164
5.717757726221086 ; 45.19596193681997
5.735094552076689 ; 45.17145543845413
5.736058536381199 ; 45.171501943339315
5.7122639509083815 ; 45.167445971172654
5.70139583474467 ; 45.204460269814334
5.705471623516401 ; 45.16393222842856
5.708754054187864 ; 45.159396430353326
5.7203170373573045 ; 45.180351595383904
5.742125063391234 ; 45.18893121657154
5.736538145704503 ; 45.169883668877965
5.703417696665799 ; 45.16338773678758
5.733241684684455 ; 45.196387232859074
5.711681211859636 ; 45.16741371043326
5.710227945249035 ; 45.19797920855615
5.742483498085389 ; 45.18765567205911
5.7343509024464545 ; 45.15903329371442
5.709609007370357 ; 45.16856370369996
5.737673122027114 ; 45.192361525144655
5.740539036721988 ; 45.17933771615115
5.729752101706165 ; 45.18587011424896
5.737150495365458 ; 45.18894356456498
5.739360201541366 ; 45.1627740766451
5.742261288786517 ; 45.177098914666985
5.751688687199463 ; 45.17227935886582
5.711734827278082 ; 45.19377385179308
5.71727601172426 ; 45.18992311529004
5.7215697944654575 ; 45.17734715987894
5.712892242032465 ; 45.17300868728206
5.732085086798331 ; 45.16306085835368
5.703793410032505 ; 45.17091702690888
5.725593247030016 ; 45.16693902377471
5.717144067280954 ; 45.19872642896791
5.741534386513209 ; 45.17431045418246
5.717945530682576 ; 45.16241217209584
5.715051995182825 ; 45.175777853962735
5.711429427230313 ; 45.165004330232755
5.740695988917032 ; 45.17051885232711
5.711977605481181 ; 45.17487970841444
5.705118120009883 ; 45.18034687897307
5.719685794071679 ; 45.175501783833695
5.7361456324484825 ; 45.17146736704785
5.707396297365862 ; 45.16511338072046
5.710852056182176 ; 45.195819306645475
5.730592612575743 ; 45.194590639927554
5.740313645554817 ; 45.17031557901017
5.706420616225967 ; 45.16540494686286
5.726916438771284 ; 45.192239474446986
5.717033561347858 ; 45.19808684378303
5.731902999480117 ; 45.19314985437505
5.732847527447816 ; 45.16651722751338
5.7323034395442924 ; 45.16820833918613
5.741326339693113 ; 45.17674778687126
5.73298322373336 ; 45.168657684968274
5.734532617887389 ; 45.17083734062901
5.728558270777144 ; 45.16178275342142
5.732842523221642 ; 45.15289769211676
5.712090058437001 ; 45.18487007166538
5.74090865172708 ; 45.19599736075004
5.734432572813697 ; 45.18607342527167
5.71286122281518 ; 45.180071185676795
5.710159487807346 ; 45.19810519348266
5.70635665779731 ; 45.165686128451824
5.7240202148027555 ; 45.164848788379636
5.735474805813861 ; 45.189993252307254
5.723781809596569 ; 45.17304489499834
5.7333149821762985 ; 45.16780094411128
5.740155491433795 ; 45.18303257080309
5.7100415074879445 ; 45.16940164091859
5.734956166258622 ; 45.18299527132757
5.712821045963061 ; 45.19572817483503
5.728948203269457 ; 45.1852712973391
5.731714018876308 ; 45.182965060618585
5.728321664467214 ; 45.18367107090734
5.729135243886158 ; 45.16356017145293
5.733286301163931 ; 45.166525669729836
5.722716604461329 ; 45.16314527391579
5.732077328329203 ; 45.193575590192545
5.713661302845396 ; 45.190958786076266
5.7137251620169 ; 45.19838855000456
5.707059459998268 ; 45.16479478714864
5.728609482702551 ; 45.1654645239897
5.711625754427195 ; 45.16488342316294
5.737286427790052 ; 45.190336693186566
5.725227444995339 ; 45.16467673288807
5.7370787450142675 ; 45.194175643869656
5.737196757410722 ; 45.16902613344981
5.7426567527785135 ; 45.18005230887
5.730648674250174 ; 45.159497795618556
5.710279215004797 ; 45.1806727766039
5.710713354581476 ; 45.19241265579734
5.719038521740654 ; 45.16150999320452
5.74367971509508 ; 45.17923646210311
5.714949717431775 ; 45.18879252702548
5.739904541700879 ; 45.19607037532622
5.7306086081762855 ; 45.1664764769874
5.7328288444069555 ; 45.16747448209997
5.7064849823111 ; 45.17559082553126
5.7449564418149315 ; 45.17006508481385
5.711224456618333 ; 45.199261262106575
5.716234812552785 ; 45.19652816589563
5.721669497901583 ; 45.16515417514502
5.736589379756285 ; 45.18289875549348
5.705245792044221 ; 45.181640364921115
5.709269023280468 ; 45.17498526579563
5.736608712635129 ; 45.18727135462585
5.737551776661284 ; 45.19042940085962
5.725655380839621 ; 45.16602045652534
5.723745148848575 ; 45.18104573379414
5.742152881348073 ; 45.188355939804765
5.726955912360549 ; 45.17735828693451
5.733929920116645 ; 45.169091326580435
5.710202158612197 ; 45.17763553640784
5.722361403706918 ; 45.189673766139904
5.732984014015976 ; 45.151572255995546
5.742789875449113 ; 45.17456837952607
5.7260327234587525 ; 45.18148211587611
5.728294707667015 ; 45.18055060096049
5.7288602537009226 ; 45.165137716509136
5.730708089502123 ; 45.176661260382524
5.736205772341763 ; 45.1715092219749
5.740574655422265 ; 45.17873666735858
5.742757425141559 ; 45.17669434069563
5.741967151902344 ; 45.17701592384227
5.7410413471248045 ; 45.19024826561872
5.744525384920459 ; 45.17466492703188
5.713417470580459 ; 45.17500398379595
5.723867834216991 ; 45.16424425008662
5.745192509422013 ; 45.17074055082186
5.732498258824906 ; 45.17042387237357
5.703996624560848 ; 45.172155238913675
5.730419212649007 ; 45.16591341384945
5.743555968625889 ; 45.171720680862045
5.744330863681432 ; 45.18845079950643
5.744652999450538 ; 45.18843551875931
5.7140586767173 ; 45.1748249926565
5.73861673129043 ; 45.17497991951288
5.736678715400928 ; 45.16901721243664
5.710628721176084 ; 45.19338097526981
5.713664541714557 ; 45.172423446633246
5.732582418870508 ; 45.195384563848236
5.7272685414911395 ; 45.1842549024359
5.72551874081701 ; 45.16440906922503
5.718043809774162 ; 45.16251323490787
5.739023116306499 ; 45.17269793268759
5.708715027541702 ; 45.172335921776835
5.728403164340776 ; 45.18438352131328
5.734114068607777 ; 45.163492762891806
5.708512222577309 ; 45.19920444532702
5.713736472507054 ; 45.19894890079402
5.710443192843083 ; 45.193786048334346
5.72903351726697 ; 45.16079570097235
5.7421457770462725 ; 45.17043409809457
5.7056988094717225 ; 45.16418697705895
5.700361668867755 ; 45.205678612163986
5.723384717899312 ; 45.1876184739919
5.73825255846492 ; 45.17425711356115
5.725038306244958 ; 45.162029106196236
5.737089772065851 ; 45.160373568404815
5.742008946927275 ; 45.189672481298544
5.724354580977211 ; 45.16184847436782
5.7107775690249785 ; 45.16705062237887
5.739460710734906 ; 45.18858921808952
5.7331042715824 ; 45.169231128313854
5.717776252362722 ; 45.19413948683319
5.705888890908612 ; 45.16325849437796
5.736692950519494 ; 45.1945151681992
5.717398857446086 ; 45.16952186179193
5.727606507598207 ; 45.18395779697599
5.738894288781784 ; 45.18817568355268
5.726973799601125 ; 45.1658259183804
5.730586501872798 ; 45.17668821740151
5.737120335813952 ; 45.16597826080379
5.734557138946754 ; 45.171392695536895
5.729537000721996 ; 45.1861918525326
5.7217635622671015 ; 45.177152316587325
5.737965245353123 ; 45.19261301890361
5.75165539840074 ; 45.1764422725904
5.7106067305223 ; 45.1590471492753
5.746239440190603 ; 45.17502912426906
5.703464655473417 ; 45.17169090781135
5.735584397418801 ; 45.194845900462994
5.743662234879685 ; 45.17945336893367
5.730919371672432 ; 45.16123877577771
5.72425683673647 ; 45.16123608605718
5.704307384274235 ; 45.18166230302449
5.716620088439255 ; 45.17427892668297
5.7191397194763 ; 45.17568110248805
5.726419369790304 ; 45.19213778697501
5.738328898907559 ; 45.17345262589555
5.737770190346689 ; 45.18921195723934
5.7424223731535164 ; 45.1877731771545
5.738039058400803 ; 45.175152294400185
5.709855429517165 ; 45.17553675658156
5.725603568711939 ; 45.167748933602
5.7072961035190595 ; 45.16028859013045
5.739491350145322 ; 45.16564695673974
5.702968699921162 ; 45.17112888127495
5.718499517922135 ; 45.17756168946657
5.7317708327022325 ; 45.16688793490722
5.7259568648680315 ; 45.16072373451
5.71203922535098 ; 45.17500139323959
5.749674480470942 ; 45.17552297531042
5.719638180285628 ; 45.185073820184854
5.718286418577083 ; 45.161128131093214
5.743737417442224 ; 45.18790708966022
5.716018868613003 ; 45.19259153370617
5.728505099563711 ; 45.16311206800838
5.723213879772592 ; 45.16402034585515
5.7426033211724095 ; 45.17314930556193
5.729322926921294 ; 45.16565710247327
5.744382950199179 ; 45.18825401542732
5.710864669879132 ; 45.162633812541024
5.729137973278685 ; 45.16420119929097
5.718395576940859 ; 45.177785260565095
5.727941115384429 ; 45.18355679111336
5.716592483599033 ; 45.197935500092306
5.732973539340603 ; 45.16875004594079
5.725184989392799 ; 45.17481181074834
5.720127802578867 ; 45.194214149935654
5.7362309489558205 ; 45.1769231464305
5.737042266279179 ; 45.18196795565332
5.73450000082978 ; 45.17026737251606
5.735995374113248 ; 45.16547154501989
5.722058959163096 ; 45.16289443047442
5.7318584452138035 ; 45.193105444230895
5.744495950103446 ; 45.17115501652378
5.742442496552869 ; 45.1757884285193
5.731655670402948 ; 45.17289608287103
5.714849570227713 ; 45.17596549430563
5.703960992253389 ; 45.167273814986416
5.733592015652284 ; 45.16549717264419
5.702484720391703 ; 45.169402269785415
5.729715148677839 ; 45.16373554660717
5.714748831527179 ; 45.16928189391851
5.748021762163396 ; 45.173215237108266
5.73235482658412 ; 45.1782312513125
5.719428290836577 ; 45.17554655161942
5.730881085456217 ; 45.16290184265937
5.736436143477225 ; 45.171344124900656
5.740442104867421 ; 45.199799599464335
5.717729122193881 ; 45.19601039515856
5.704684157152855 ; 45.161081196771605
5.736494316731248 ; 45.15919489534315
5.737476174241999 ; 45.17584077850781
5.7162626042031714 ; 45.18723968172265
5.709922298624262 ; 45.169420685206205
5.74104708126055 ; 45.17460197509849
5.718894532302292 ; 45.176831877945276
5.721968282047342 ; 45.18919075206214
5.712440350931359 ; 45.16801619827574
5.736666159750757 ; 45.169579757043614
5.713253716312084 ; 45.18952781947936
5.721225819668387 ; 45.17255698697872
5.743315669221053 ; 45.18461704170279
5.708681190994217 ; 45.18176784353293
5.740582066681023 ; 45.17887842642422
5.72477447046204 ; 45.16124488578317
5.712011592177324 ; 45.193008273904624
5.707935780349205 ; 45.19934243749611
5.707856758535071 ; 45.17998320939606
5.7325399654695675 ; 45.18407777781279
5.728917390167916 ; 45.184305677101825
5.7172760477016356 ; 45.17493741349671
5.733182679785127 ; 45.151712372089214
5.7102061054538975 ; 45.16136897338409
5.722950595401799 ; 45.16908191070385
5.724958997483499 ; 45.167282433547925
5.7426803491416445 ; 45.1702996807824
5.732279667384483 ; 45.17093935417791
5.732613406251009 ; 45.15526868794049
5.740320217207811 ; 45.19264536474293
5.726343679414327 ; 45.165422954778855
5.714857091160717 ; 45.16965555146727
5.730721132715393 ; 45.15953116205595
5.734657325654766 ; 45.17084495491644
5.718893577210512 ; 45.1705266147586
5.7382125158019885 ; 45.175370532075924
5.7407654677654465 ; 45.17529181007395
5.74191152538643 ; 45.1897486427052
5.741149364950309 ; 45.18857348443366
5.725308123893501 ; 45.166513699959374
5.7355250867507594 ; 45.18263803982345
5.707529293049795 ; 45.18181026884264
5.742301552215342 ; 45.176224383930226
5.735557348269793 ; 45.17691716020054
5.705622522174211 ; 45.16373178152156
5.72096706267081 ; 45.17673416336056
5.735993019355333 ; 45.19552200328353
5.729194414098681 ; 45.18297320100704
5.734191998788239 ; 45.19635810225277
5.706443209516083 ; 45.16569633657842
5.725300054842983 ; 45.19007284023869
5.734459910506911 ; 45.18622132132467
5.7333145924981785 ; 45.16774469119589
5.7112079905557565 ; 45.165141589244115
5.735477534096395 ; 45.16621761181798
5.71801979580287 ; 45.160929303217294
5.73209363346011 ; 45.16196107072379
5.736738774030143 ; 45.17261049921454
5.742177985859176 ; 45.17091846271474
5.709689535386556 ; 45.175522195983035
5.716903871024673 ; 45.19162062748728
5.742982777433222 ; 45.175851723807874
5.72101112162725 ; 45.170572017218724
5.728171378636656 ; 45.16355990119065
5.705744730983077 ; 45.1763093604323
5.722247534520429 ; 45.16566818168347
5.704460691906446 ; 45.16075074977094
5.704652747521525 ; 45.18134631748704
5.717803281995428 ; 45.19284919197697
5.7204785092041766 ; 45.17737528975138
5.740882333399617 ; 45.17941049408129
5.705693572329971 ; 45.190537944888646
5.702989203702355 ; 45.169754704298136
5.711735812495025 ; 45.19407256369231
5.741353759355885 ; 45.17681605454769
5.705114486194756 ; 45.18026054496405
5.7444813255060865 ; 45.18441400251971
5.735494031749636 ; 45.182603568883835
5.7096709415207885 ; 45.18631106473531
5.7239171421168 ; 45.16584709559779
5.713893922237961 ; 45.18026618270439
5.732553215424835 ; 45.195647872174064
5.726629702526892 ; 45.185078595365034
5.728513304679484 ; 45.16285152416544
5.725527597729934 ; 45.18497464264468
5.710392547468039 ; 45.19118553939217
5.721510759610074 ; 45.1848761205708
5.7450793934686795 ; 45.17041692009815
5.704481721049858 ; 45.180167449980694
5.711480976199847 ; 45.19917028139005
5.70496174125013 ; 45.166498395622995
5.735762835616013 ; 45.194216079741544
5.74529829682327 ; 45.18761076949236
5.723375563199507 ; 45.16370745662915
5.721940045434707 ; 45.17648640977857
5.733574569062471 ; 45.16119695570674
5.705659536635265 ; 45.18281231244356
5.730358283995043 ; 45.16085508043643
5.7405348386340895 ; 45.169103901348926
5.743675704881524 ; 45.19228313185107
5.7302421414192075 ; 45.187331861725255
5.70022334752527 ; 45.20512248837406
5.73253528505075 ; 45.16968996625167
5.733759805456018 ; 45.16365731081809
5.725640532685434 ; 45.16610236794409
5.7238592753159026 ; 45.17142611014337
5.724667094827157 ; 45.18114996425518
5.735416636071812 ; 45.19007005371431
5.749993560704672 ; 45.175665223435246
5.744857555660273 ; 45.193165290108546
5.708130114958994 ; 45.16533639741855
5.705768582870811 ; 45.19044275212612
5.744321351430897 ; 45.17529974021726
5.7183277271090285 ; 45.16251002452588
5.729738346384581 ; 45.1770610586933
5.739811677778522 ; 45.16782324261941
5.744352296790469 ; 45.18534856545496
5.703777152895971 ; 45.17093792989861
5.732860406653209 ; 45.16861038196926
5.707056967730417 ; 45.16481836261839
5.723622505884858 ; 45.16542826156486
5.73596811245797 ; 45.17136310458966
5.710552240471781 ; 45.19533282175002
5.71800655143957 ; 45.19535792870711
5.744712928477912 ; 45.194793866208194
5.730969292484431 ; 45.167788142304595
5.719978812172432 ; 45.192262421303646
5.744092471459109 ; 45.193758901568685
5.713422140546065 ; 45.1914773717927
5.710886882840816 ; 45.19125558030297
5.720416228234076 ; 45.18065457798622
5.737203493027274 ; 45.176933008687264
5.736410494217113 ; 45.20132702578129
5.728991047323364 ; 45.18520458135504
5.737030317116063 ; 45.16067433502464
5.725732574931218 ; 45.1864457785366
5.72901862185297 ; 45.16443581662594
5.704044768884381 ; 45.16685746278722
5.7075564240839105 ; 45.165263439493046
5.71224573486377 ; 45.168226927600266
5.728931930727915 ; 45.163193897314905
5.729663391411689 ; 45.189165199803206
5.71857440926283 ; 45.175538144516665
5.735482390339523 ; 45.180478786702224
5.717349158028593 ; 45.19664088578588
5.707703344897991 ; 45.163549058832125
5.717493262452412 ; 45.19640076921631
5.720418220732833 ; 45.194455311589074
5.715303743875634 ; 45.19150150563699
5.742128285663437 ; 45.17725400480239
5.7196103464870305 ; 45.192403658339195
5.71355537738669 ; 45.187644671940674
5.70514308730845 ; 45.16137557658746
5.729258763042815 ; 45.18356928294586
5.735826573278108 ; 45.19421584308963
5.72024830077386 ; 45.18034579568159
5.751011564595307 ; 45.17635805627378
5.719206943901271 ; 45.17543574017079
5.707518696477654 ; 45.163758735465336
5.747587637945597 ; 45.18784100333456
5.735518553471439 ; 45.16212696687663
5.724803027738925 ; 45.1595782600366
5.738394669020144 ; 45.1895994748616
5.7380210741513595 ; 45.17249995852628
5.709993321578388 ; 45.17526990344082
5.740519923263628 ; 45.195684458971606
5.736443605702945 ; 45.19426048424202
5.71760137544035 ; 45.17539299945089
5.732670201382727 ; 45.171747004308266
5.740661373599293 ; 45.179365215185776
5.722445568099656 ; 45.164524065719554
5.732601267146503 ; 45.15553847975946
5.733320723923088 ; 45.19617032639151
5.7393681987068605 ; 45.16816410658955
5.740996266809895 ; 45.18925758759031
5.734641389916088 ; 45.16992543615759
5.708545089354508 ; 45.19308246316995
5.7447609704789615 ; 45.169503029989926
5.723980275460213 ; 45.165179909988964
5.721821075015941 ; 45.162949449893
5.719234502611449 ; 45.18907234406182
5.742503526405345 ; 45.1677892047943
5.73974105088797 ; 45.176084467365854
5.727046361480526 ; 45.165630561354476
5.702970302920251 ; 45.169588747157974
5.7342707697107915 ; 45.16999328488704
5.737012008954398 ; 45.165763815697034
5.718780486410518 ; 45.170716488629516
5.732714975073219 ; 45.16968463416102
5.73173303167933 ; 45.183521095035765
5.707067900574561 ; 45.164165041006854
5.700446953196601 ; 45.205864057430524
5.739370032577635 ; 45.17487816196268
5.703567043498135 ; 45.169345349171486
5.740795400440781 ; 45.192905552361715
5.724219267241306 ; 45.18666770669814
5.705555889203954 ; 45.17709106785711
5.7349912889733545 ; 45.18700660744854
5.718402774277899 ; 45.160861077135614
5.717712394675123 ; 45.1759903082084
5.70701799794403 ; 45.177499072390475
5.710862528299452 ; 45.19335108161963
5.713823335741079 ; 45.18695506284568
5.708777737546851 ; 45.1801479171212
5.740068476067402 ; 45.17064082492297
5.737444917060058 ; 45.19435252194248
5.745271596468044 ; 45.18820223679506
5.728300510910661 ; 45.18383467996874
5.731835993810589 ; 45.176338747560315
5.728396909804816 ; 45.165830443359084
5.717381835483878 ; 45.1906684405777
5.740858829620746 ; 45.172094207139146
5.728178071133468 ; 45.166493770182136
5.7371139284343915 ; 45.1730873380735
5.737485786083538 ; 45.172529142029354
5.710675690336601 ; 45.192333820790125
5.741914654328065 ; 45.17950491907848
5.7327512384850845 ; 45.15212826343605
5.7223188383311925 ; 45.18973779666164
5.70478466851554 ; 45.16671172875839
5.726789875459932 ; 45.18515796223082
5.7345441773749934 ; 45.18645461445529
5.725557768485339 ; 45.163457317447
5.716788729218831 ; 45.195669763076324
5.723487428098414 ; 45.164350420566024
5.728814363414467 ; 45.160534880177345
5.720877898827719 ; 45.19161953507298
5.706042780251133 ; 45.171747222010325
5.71978345856623 ; 45.19424396507758
5.739620864263128 ; 45.16056405430039
5.709276914422411 ; 45.17322988583012
5.731819648919653 ; 45.18170435767053
5.733211350897128 ; 45.16810677394073
5.730446389625467 ; 45.16781074186786
5.74321945919435 ; 45.17186152445599
5.742529283417902 ; 45.16860552522065
5.705040685401406 ; 45.163829892227184
5.739823223092246 ; 45.173306697656734
5.710459542461164 ; 45.172428528993485
5.742201210464664 ; 45.167358446846315
5.717575972323562 ; 45.198599431787976
5.741598862419456 ; 45.19035932879277
5.737416758983938 ; 45.16874104515803
5.723386516202454 ; 45.164503897957744
5.720232120610218 ; 45.19414175458579
5.7178415061489405 ; 45.19581622451169
5.726127342024706 ; 45.16075400210983
5.721870847689362 ; 45.19388978985475
5.705170328108016 ; 45.1614556986467
5.703380368539436 ; 45.16971707720111
5.708513065709451 ; 45.18006721128093
5.717033956179272 ; 45.18777170308761
5.737873698619791 ; 45.19231801660491
5.707506032764501 ; 45.16511597333839
5.741835223383676 ; 45.17592401156099
5.742407478254757 ; 45.187246631061925
5.733988233252146 ; 45.18589344160377
5.72382231310542 ; 45.17304303143353
5.731032047869008 ; 45.168131759661506
5.736090590468648 ; 45.188158564946626
5.74052701081479 ; 45.19865795983196
5.735987250013871 ; 45.16549591641703
5.703753102117304 ; 45.16788404059223
5.709852391054554 ; 45.16033886823705
5.728810128393465 ; 45.18016923051342
5.727619534817928 ; 45.15958070710924
5.7361952279572925 ; 45.169797784094136
5.742586334621879 ; 45.17666463326165
5.707500646021619 ; 45.16315673574279
5.709437564103703 ; 45.17535250569964
5.73262253206575 ; 45.1847609108141
5.723406807213627 ; 45.173132486237186
5.737233273397614 ; 45.16681802036788
5.719434303014431 ; 45.19086624867763
5.72754806704373 ; 45.184011225201395
5.70523386385635 ; 45.163921724659694
5.734536349094158 ; 45.169998045926015
5.736678683590269 ; 45.1768765648423
5.744230703479661 ; 45.183130574049315
5.736060300019664 ; 45.17298458907083
5.712286419110146 ; 45.17245821664842
5.7138428487768556 ; 45.19455681647294
5.7367738992099975 ; 45.18904758142812
5.7386001243549005 ; 45.17501045774337
5.734605574455016 ; 45.187660192773464
5.742933505898608 ; 45.18843008405848
5.705489106501463 ; 45.176860182853034
5.704922359582779 ; 45.16149871400189
5.734904250042601 ; 45.160486655426006
5.707758896029645 ; 45.18020610954232
5.720478454439785 ; 45.1755983131773
5.7133611495624965 ; 45.18966902592367
5.721620227794592 ; 45.1626172449193
5.740946252131612 ; 45.19864273648811
5.720222039481395 ; 45.19462952201406
5.728245290600677 ; 45.177846890731296
5.72920690934535 ; 45.18285945325659
5.748821659802301 ; 45.17877432943842
5.713118525964308 ; 45.19882893023746
5.742186549839956 ; 45.17365322582046
5.735220250652811 ; 45.1621160607252
5.7415704696729835 ; 45.189341334647814
5.725406225748579 ; 45.16715288435238
5.736460930902025 ; 45.1714354787453
5.740385483477908 ; 45.19579855921166
5.738848187737278 ; 45.16690769241244
5.702333021583669 ; 45.169181063663
5.711819273682606 ; 45.16493367653589
5.706067468615711 ; 45.16379177307205
5.7195738773499585 ; 45.17758072332793
5.711449730410036 ; 45.1647996582053
5.710408871558418 ; 45.19506329132025
5.722904544236673 ; 45.16903440419429
5.732688253625489 ; 45.15362556314777
5.7456921353765305 ; 45.19510926535443
5.720363487970753 ; 45.19155251700984
5.733793673761512 ; 45.189380819472056
5.733893495579506 ; 45.16113262885206
5.733913580417765 ; 45.158719356672954
5.74241627404609 ; 45.17563036769715
5.712148103710881 ; 45.19927106642737
5.728505574741731 ; 45.162979506496654
5.725519251232946 ; 45.1667923392205
5.7276145567889785 ; 45.18398427156085
5.703553907838098 ; 45.164348572582945
5.733676130528202 ; 45.1970136448965
5.714415737137222 ; 45.19841736282321
5.745361860607984 ; 45.17199936757731
5.725387316609426 ; 45.16458344690388
5.735544515212476 ; 45.171856628228625
5.713074015603153 ; 45.17098443895871
5.712492168171396 ; 45.176101234157365
5.745248732650694 ; 45.179488583500806
5.732558419116042 ; 45.169116194232714
5.727453501817953 ; 45.18678901742608
5.725551168568916 ; 45.166292359978236
5.740383354027885 ; 45.17157972852335
5.725343082171036 ; 45.162607628039744
5.71783662724258 ; 45.17635806848401
5.742584285507202 ; 45.17659427303876
5.738814348133516 ; 45.175266695599255
5.714746983697372 ; 45.18039796532403
5.731504328335036 ; 45.16886570300124
5.729490414268462 ; 45.176538488445516
5.705848263330722 ; 45.16410168386816
5.741207030064046 ; 45.192806208780965
5.736653246910519 ; 45.1937649825756
5.712847611128016 ; 45.19621638476022
5.740546265240608 ; 45.16377501782028
5.710732381747304 ; 45.19254841280298
5.732501903760535 ; 45.198793125705606
5.725615109986711 ; 45.16784463748949
5.735699657536569 ; 45.17140885076231
5.707700641784195 ; 45.181810944504825
5.733791824114007 ; 45.1967483107338
5.744104212551957 ; 45.16999928123514
5.719456964682497 ; 45.17932005850452
5.716661930168548 ; 45.187298315865576
5.743597169780061 ; 45.19337660884974
5.70671725305896 ; 45.175973416631216
5.712673500068281 ; 45.19881992461865
5.739010597348179 ; 45.183858870296454
5.708601442678676 ; 45.19286728655773
5.7397407661671584 ; 45.1927021165797
5.727112749776865 ; 45.1664306915231
5.741062132899248 ; 45.17457851738935
5.742000855223091 ; 45.17673196537169
5.734355901452027 ; 45.1944651896409
5.743284173867445 ; 45.18511211379582
5.718967940184269 ; 45.19079613673846
5.743508350616441 ; 45.17108472045945
5.728296206253744 ; 45.183791400823445
5.727746226119483 ; 45.162709416987546
5.709011215457142 ; 45.17333706690327
5.7210834794552206 ; 45.159967765418635
5.739490993084916 ; 45.175085265138215
5.714174770162317 ; 45.19614204170308
5.726431063549925 ; 45.16295951465007
5.724753449212058 ; 45.16424537656748
5.719340854132392 ; 45.17593045991892
5.72196004686678 ; 45.16289838214158
5.7224152661248295 ; 45.16279861040859
5.742383894305685 ; 45.18926986673224
5.728562163240731 ; 45.16746001342683
5.73748152549614 ; 45.16998403358579
5.729413632906379 ; 45.17655625213411
5.741344752291538 ; 45.188436815689464
5.733516893220169 ; 45.166851760604665
5.738406048528116 ; 45.18923380403468
5.734712642300872 ; 45.17763918336547
5.720934097972405 ; 45.19024821564502
5.718649700943104 ; 45.16137557673727
5.74126713531603 ; 45.18943271443487
5.717376385217133 ; 45.198883662880526
5.710167815766237 ; 45.16096271872687
5.728186338522195 ; 45.18253447404834
5.726968889001719 ; 45.16356648768024
5.704374646133615 ; 45.18538201108561
5.736679525035993 ; 45.197058050053194
5.72686620822398 ; 45.18421662097421
5.735236567115247 ; 45.18672662204142
5.7401798379576 ; 45.166200470720064
5.741773176025949 ; 45.18520744091854
5.721106890435721 ; 45.170283579348606
5.705938907846058 ; 45.16612978804286
5.741038999285928 ; 45.190368138724324
5.713500094155015 ; 45.18040425018035
5.724786646503754 ; 45.17105419423967
5.740287257053099 ; 45.16627461999937
5.706058659105602 ; 45.1657033957191
5.703309003080708 ; 45.18089172693349
5.705157842518591 ; 45.16555608843614
5.737310193689729 ; 45.16682729857792
5.7405094130712 ; 45.19482628136264
5.719721417995053 ; 45.161036232747776
5.742386766371913 ; 45.17627944205273
5.713173452646853 ; 45.17263637881177
